-26.0086	13.8435
-24.9954	15.6021
-24.0125	17.3207
-22.9918	19.0496
-29.005	5.18351
-27.9909	6.91356
-27.0071	8.65574
-25.9979	10.4072
-24.9967	12.125
-23.9951	13.8433
-22.9909	15.5899
-21.9904	17.3129
-21.0089	19.0574
-19.9962	20.7839
-18.9855	22.5079
-29.0003	1.73944
-27.9896	3.46083
-27.0067	5.1856
-26.0013	6.92992
-25.0067	8.64994
-24.0062	10.3936
-22.9883	12.1201
-22.0134	13.8694
-20.9931	15.5898
-20.0066	17.3348
-19.0089	19.0569
-17.9988	20.7984
-17.0112	22.5315
-16.0014	24.2509
-28.9888	-1.72866
-27.9877	0.00773217
-26.9879	1.73954
-25.9959	3.46815
-25.0091	5.20711
-23.989	6.93044
-22.9944	8.66438
-21.9919	10.39
-21.0091	12.129
-20.0149	13.8671
-19.001	15.5766
-18.0103	17.3326
-17.0113	19.0456
-15.9982	20.7757
-14.9909	22.5168
-14.0022	24.2344
-13.0136	25.9779
-28.9949	-5.19649
-27.9876	-3.47003
-27.0027	-1.73012
-26.0129	0.0140883
-24.9906	1.72356
-24.0001	3.47188
-23.012	5.1902
-21.994	6.94051
-20.9918	8.65097
-20.002	10.4065
-18.9863	12.1336
-17.9953	13.8598
-16.9991	15.583
-16.0037	17.321
-14.9928	19.0564
-13.9961	20.7971
-13.002	22.5043
-12.0099	24.2582
-10.9948	25.99
-9.99811	27.7136
-26.9968	-5.19536
-25.9873	-3.47654
-25.0138	-1.73973
-24.0106	0.0143874
-23.0091	1.72083
-22.0036	3.4785
-21.0122	5.20192
-19.9988	6.92959
-18.9874	8.66338
-17.9937	10.3964
-17.0142	12.1227
-16.0072	13.8646
-14.9852	15.5963
-14.0139	17.328
-13.0007	19.0617
-12.0018	20.7912
-10.9903	22.5257
-10.0114	24.2356
-9.00928	25.9792
-8.00364	27.7056
-27.9977	-10.394
-27.0112	-8.64669
-26.0012	-6.91573
-25.0122	-5.20279
-24.0016	-3.45657
-23.0049	-1.741
-22.0044	-0.00911731
-20.9977	1.72142
-20.0017	3.46373
-19.0055	5.20188
-18.0113	6.91539
-17.0029	8.6699
-15.9999	10.3869
-14.9876	12.1197
-14.0034	13.8507
-13.0031	15.598
-11.9987	17.3323
-10.9882	19.0417
-9.99162	20.7974
-8.99611	22.5278
-8.01168	24.2433
-6.99631	25.9725
-5.99022	27.7001
-4.99266	29.4574
-26.9954	-12.1298
-26.0067	-10.3964
-25.0072	-8.65985
-23.9878	-6.94183
-23.0003	-5.18805
-21.9898	-3.47108
-20.9949	-1.74168
-20.0113	0.0149929
-19.0124	1.71813
-18.0093	3.47623
-17.0095	5.1863
-16.0065	6.92776
-15.0076	8.65635
-13.9909	10.4061
-13.0008	12.1191
-11.9869	13.8612
-10.9873	15.6017
-9.98968	17.3225
-9.01219	19.06
-8.00042	20.7772
-7.00259	22.5309
-5.9928	24.2364
-4.98938	25.9791
-4.00377	27.7204
-3.00567	29.4535
-25.9998	-13.8467
-25.0136	-12.1187
-23.9946	-10.4027
-23.0095	-8.64794
-21.985	-6.93939
-20.9942	-5.20053
-20.0135	-3.47692
-18.9968	-1.72932
-18.0005	-0.010042
-16.9991	1.72142
-16.0107	3.4584
-14.9898	5.2099
-14.0052	6.92169
-12.9911	8.6481
-11.987	10.388
-10.9895	12.1132
-10.0074	13.8562
-9.00956	15.596
-7.98679	17.3264
-6.99257	19.0461
-5.98511	20.7862
-4.99015	22.5114
-3.98569	24.237
-3.01208	25.983
-2.00122	27.7088
-0.998011	29.4499
-24.9971	-15.592
-23.9941	-13.8596
-22.9857	-12.1217
-21.9907	-10.382
-20.9956	-8.66942
-20.0114	-6.92091
-19.0107	-5.20947
-18.0128	-3.46475
-17.008	-1.74566
-15.9979	0.00838765
-14.9913	1.73944
-14.0077	3.46197
-12.9919	5.20367
-11.994	6.93163
-11.0145	8.66363
-10.0061	10.3967
-9.00145	12.1103
-7.99295	13.8711
-5.9862	17.3274
-5.00947	19.0454
-4.00797	20.797
-2.99992	22.51
-2.01313	24.2396
-1.00124	25.9784
0.00770369	27.7102
0.987547	29.4396
-23.9934	-17.3119
-23.0124	-15.5928
-21.9969	-13.8422
-20.9943	-12.1299
-20.0021	-10.3911
-18.9932	-8.66297
-18.0061	-6.92855
-17.0074	-5.20354
-15.9927	-3.46099
-15.0079	-1.72976
-13.9859	-0.0118941
-12.9957	1.74085
-11.9891	3.46757
-11.0144	5.20625
-10.0036	6.92282
-8.98907	8.65805
-8.00276	10.3988
-7.01343	12.1202
-6.0079	13.8547
-5.00713	15.586
-3.99167	17.3056
-2.99741	19.061
-1.98596	20.7715
-0.998966	22.5035
0.0132316	24.2391
0.992417	25.9893
2.01046	27.7094
-23.0002	-19.0446
-21.9952	-17.3099
-21.0062	-15.6013
-20.0027	-13.8615
-19.0072	-12.1205
-18.0146	-10.3916
-16.9852	-8.66233
-16.0103	-6.92003
-15.0051	-5.1953
-13.9894	-3.46557
-12.9984	-1.74595
-11.9957	-0.00517204
-11.0066	1.74669
-10.0043	3.45435
-8.98548	5.20264
-7.99353	6.9208
-6.9994	8.67081
-6.00953	10.4016
-5.01003	12.134
-3.98877	13.8547
-2.99479	15.5781
-2.01275	17.3345
-1.00604	19.0502
-0.00182561	20.7823
0.995057	22.5193
2.0052	24.2579
2.988	25.9855
4.00745	27.7163
5.00246	29.4584
-20.995	-19.0542
-19.9948	-17.3219
-19.0148	-15.5857
-16.9891	-12.1171
-15.9987	-10.3945
-14.9929	-8.6554
-13.9946	-6.93025
-13.0117	-5.20286
-12.0055	-3.45597
-11.0106	-1.71914
-10.0002	-0.00640053
-9.01493	1.72789
-7.99015	3.47855
-7.0018	5.21112
-5.99772	6.92375
-4.99855	8.67099
-3.99473	10.3884
-2.99171	12.1149
-1.99921	13.8642
-1.00833	15.5736
0.0136028	17.3259
0.993257	19.0415
1.99263	20.7975
3.0119	22.5086
5.01304	25.9723
5.9957	27.7124
-20.013	-20.7729
-19.0099	-19.0613
-17.9908	-17.3334
-17.0146	-15.5883
-15.9867	-13.8528
-15.0118	-12.1192
-13.9862	-10.3797
-12.9866	-8.65794
-11.9865	-6.92843
-10.9903	-5.19234
-9.99778	-3.47126
-8.99899	-1.71841
-8.0076	-0.000550287
-6.99912	1.7442
-6.00167	3.4751
-5.01239	5.20405
-3.98792	6.91733
-2.99156	8.65659
-2.01387	10.3846
-1.01071	12.1272
-0.00383395	13.8686
1.01407	15.5807
1.99355	17.3301
2.99194	19.0593
3.99962	20.7838
4.99751	22.5209
5.98565	24.2576
7.01225	25.978
7.98889	27.7012
-19.0145	-22.5302
-18.0085	-20.7724
-17.0043	-19.0552
-15.992	-17.3175
-14.9878	-15.6011
-14	-13.8564
-12.9958	-12.1369
-12.0098	-10.3857
-10.9987	-8.66974
-9.9853	-6.92621
-9.01115	-5.19238
-7.99216	-3.47726
-7.00082	-1.73456
-6.00054	0.00540195
-4.99378	1.74215
-4.01024	3.44912
-3.0008	5.21038
-1.98785	6.92375
-1.01283	8.65389
0.00122664	10.3935
1.00345	12.1199
1.99823	13.8532
3.00997	15.5784
4.00224	17.3082
4.99899	19.0386
5.98564	20.7927
7.00451	22.5296
7.99678	24.2466
8.98575	25.9721
9.99096	27.7196
-17.0099	-22.5067
-16.0037	-20.7838
-15.0114	-19.0522
-13.9951	-17.3339
-13.0123	-15.5933
-11.9875	-13.8466
-11.0018	-12.1261
-10.0009	-10.4003
-8.9858	-8.6454
-7.98836	-6.92923
-7.00445	-5.20494
-5.98712	-3.46824
-5.00709	-1.7367
-4.00375	-0.00242996
-2.99356	1.7371
-2.00727	3.4584
-0.986409	5.20071
0.0137552	6.92101
1.01211	8.65522
1.99165	10.4046
2.99781	12.1356
3.99125	13.8443
5.00934	15.5928
6.0093	17.3108
6.99644	19.0509
8.00976	20.7907
8.99562	22.5104
9.991	24.2355
10.9975	25.9777
-15.9869	-24.257
-14.9958	-22.5249
-14.0065	-20.7777
-12.9976	-19.0472
-12.0108	-17.3191
-11.0098	-15.586
-9.99992	-13.8617
-9.00896	-12.1218
-7.99841	-10.3812
-6.99634	-8.64527
-6.0082	-6.92672
-4.99938	-5.18515
-4.00333	-3.45945
-3.01093	-1.72852
-1.99147	-0.00883317
-1.00775	1.72403
-0.00779706	3.45817
0.999126	5.19995
2.0056	6.93555
2.98891	8.65156
3.99755	10.3848
5.01276	12.1378
6.01335	13.8612
6.99787	15.5897
7.98793	17.3081
9.01239	19.0443
10.0099	20.7849
11.0021	22.5028
11.9875	24.2453
12.9859	25.9751
-14.9897	-25.9929
-14.0082	-24.2464
-13.0062	-22.5288
-12.0064	-20.7757
-11.0006	-19.0489
-10	-17.3205
-9.01452	-15.5842
-7.9982	-13.8487
-6.99837	-12.1336
-5.98516	-10.3842
-5.00563	-8.67166
-4	-6.9282
-3.00641	-5.18467
-2.00135	-3.47419
-1.00397	-1.72802
-0.0141355	0.00354078
0.995342	1.73828
2.00872	3.4594
3.0098	5.19304
3.98947	6.9295
5.00453	8.65365
5.98518	10.3899
7.00879	12.1383
7.99419	13.858
9	15.5885
10.0113	17.3155
11.0013	19.0638
12.0069	20.7946
12.9917	22.5163
13.9853	24.2429
15.0102	25.9845
-13.0085	-25.9909
-11.9913	-24.2621
-11.001	-22.5025
-9.99479	-20.7715
-9	-19.0526
-8.01457	-17.3298
-7.01088	-15.5782
-6.00064	-13.8421
-5	-12.1244
-3.98874	-10.4028
-2.98889	-8.65529
-2.01247	-6.93377
-0.99806	-5.18675
-0.0148845	-3.46617
1.00473	-1.72006
1.98574	0.00596308
3.00172	1.74555
3.99206	3.4543
5.0123	5.1923
6.0005	6.91815
6.99966	8.64615
8.00313	10.4013
8.98855	12.1309
9.98544	13.8657
11.0022	15.5861
12.0011	17.3355
12.9981	19.0643
13.9931	20.7844
15.0149	22.528
15.9886	24.2467
-10.998	-25.9894
-9.99385	-24.2597
-8.99042	-22.5027
-8.00911	-20.7845
-6.99193	-19.0672
-6.0011	-17.3263
-4.9927	-15.5894
-4.00655	-13.8416
-3.00823	-12.116
-2.00429	-10.4037
-1.01459	-8.66144
0.0134122	-6.93497
0.991249	-5.19496
1.99708	-3.45674
2.98574	-1.72278
4.01497	-0.00244982
4.99758	1.74038
5.99906	3.46404
6.99458	5.20291
7.99044	6.92208
8.99963	8.65375
10.0096	10.3874
10.9883	12.1145
12.0022	13.8604
13.0079	15.5934
13.998	17.3219
14.9957	19.0447
16.0142	20.7768
16.9979	22.5075
-10.0031	-27.7172
-9.01414	-25.9864
-8.01071	-24.2392
-6.99152	-22.5155
-6.00125	-20.7935
-5.00083	-19.0636
-4.0034	-17.3208
-2.98762	-15.5753
-1.99872	-13.8712
-0.990832	-12.1154
-0.00323871	-10.3788
1.00389	-8.66132
1.98608	-6.91551
3.01489	-5.18329
3.99685	-3.47656
5.00093	-1.72108
5.98918	-0.0103603
6.99559	1.74417
7.99547	3.47141
8.99828	5.20179
9.99252	6.94029
11.0134	8.64949
12.014	10.407
13.0084	12.1099
14.006	13.8414
15.0117	15.5841
15.9886	17.3187
16.9934	19.0482
17.9942	20.7925
19.0094	22.529
-7.99427	-27.7203
-6.98743	-25.9907
-6.0055	-24.2562
-5.01164	-22.5053
-3.98976	-20.7757
-3.01292	-19.0669
-2.00036	-17.3329
-1.00308	-15.5818
0.00391174	-13.8513
1.00069	-12.1381
2.01329	-10.3838
3.00617	-8.65706
4.01456	-6.9301
4.98749	-5.18774
6.00323	-3.46207
7.00152	-1.73826
8	0
8.9887	1.72172
10.0118	3.45792
11.0106	5.19991
12.007	6.9233
12.9981	8.66631
13.9878	10.3849
15.0021	12.112
16.0138	13.8617
17	15.5885
18.007	17.3239
18.99	19.0486
20.0026	20.7971
-5.98609	-27.7207
-4.99947	-25.9887
-4.01135	-24.2602
-3.00438	-22.5205
-1.99473	-20.7808
-0.995632	-19.0478
-0.00500676	-17.3351
0.996995	-15.5847
1.98828	-13.8478
3.98742	-10.385
5.0054	-8.65625
6.01457	-6.92554
7.01468	-5.1938
8.01461	-3.46422
9.0101	-1.74075
9.99654	-0.0147412
11.0013	1.74578
11.9923	3.46954
12.9991	5.18687
13.9969	6.93658
14.9924	8.64968
16.0055	10.404
17.0095	12.1157
17.9991	13.8435
18.9977	15.5879
20.0037	17.3298
21.015	19.058
-4.99395	-29.4484
-3.99515	-27.7113
-3.00524	-25.995
-1.99105	-24.2407
-0.987501	-22.5297
0.00105683	-20.7769
1.00073	-19.0521
1.98592	-17.33
3.00189	-15.603
4.00066	-13.8434
5.0146	-12.1328
6.00774	-10.3915
6.98971	-8.66182
8.01081	-6.91478
8.98911	-5.18347
9.99731	-3.46157
10.9982	-1.73777
12.0066	-0.00963739
12.9863	1.74258
13.9997	3.45522
14.9903	5.20044
15.9995	6.92124
17.0104	8.66692
18.0061	10.3793
19.0062	12.1278
20.001	13.8689
21.0005	15.5937
21.9873	17.3129
23.0009	19.0612
-2.99918	-29.4593
-2.00415	-27.7136
-0.991348	-25.9939
0.00181974	-24.2504
1.00576	-22.5282
2.00864	-20.7903
3.01454	-19.038
3.98833	-17.3316
5.00133	-15.5994
5.98938	-13.859
6.98663	-12.1365
7.99379	-10.4008
8.98817	-8.66497
9.99953	-6.92854
10.9941	-5.20749
12.0017	-3.45195
13.0028	-1.73802
13.9948	0.00879469
15.0064	1.7304
15.986	3.46463
16.985	5.20754
18.006	6.93915
18.9965	8.66409
20.0142	10.4055
21.0105	12.1288
22.01	13.8571
22.9983	15.5985
-0.999206	-29.4572
-0.00874998	-27.7049
0.986628	-25.9911
1.98745	-24.2571
2.99507	-22.5153
4.00846	-20.7784
4.99563	-19.0612
6.00432	-17.3095
7.01244	-15.5773
8.01131	-13.8708
9.00831	-12.1162
10.0005	-10.381
10.9881	-8.65875
11.9945	-6.93599
12.9898	-5.19147
14.0074	-3.46263
15.0086	-1.74113
16.0039	0.00600191
16.9943	1.73034
17.9964	3.45897
19.0039	5.19056
20	6.91678
20.9983	8.6567
22.0121	10.3888
23.0035	12.1215
23.9971	13.8445
24.9973	15.5902
1.00567	-29.4592
1.98617	-27.7187
3.00528	-25.9875
4.00009	-24.2376
5.01262	-22.5163
6.01367	-20.787
7.00266	-19.0589
7.99558	-17.3347
9.0109	-15.5777
10.0111	-13.8633
10.9972	-12.1224
12.0028	-10.3861
12.9988	-8.66208
13.9981	-6.94308
14.9872	-5.18345
15.9971	-3.46447
17.0073	-1.72474
18.0041	-0.0124168
19.0068	1.73147
20.0101	3.4652
20.9921	5.19134
21.9964	6.92746
22.9882	8.67436
23.9967	10.3944
25.0129	12.125
26.006	13.8667
3.00743	-29.4328
3.98798	-27.722
5	-25.9868
6.01117	-24.2485
7.01035	-22.5233
8.0138	-20.7726
9.00447	-19.0579
10.0044	-17.3276
10.9884	-15.5923
11.9964	-13.8416
12.9915	-12.1305
13.9953	-10.3803
14.987	-8.66888
16.0014	-6.9162
16.9911	-5.19332
18.0011	-3.47473
19.0076	-1.72461
20.0005	0.00413452
20.9953	1.73322
22.006	3.47614
23.9933	6.92713
24.9937	8.65973
25.9891	10.4045
26.9953	12.1323
4.9945	-29.438
6.01273	-27.7254
7.00174	-25.987
7.98748	-24.2348
9.01087	-22.504
10.0103	-20.7935
11.0113	-19.0476
12.0136	-17.3103
13.0048	-15.5816
14.0114	-13.8419
15.0053	-12.1165
16.0143	-10.395
16.9896	-8.64682
17.9926	-6.94089
18.9928	-5.19547
20	-3.4641
21.0108	-1.73838
21.9855	-0.00437469
22.9867	1.71892
24.0066	3.45862
25.013	5.19383
25.9928	6.91415
27.0062	8.67167
28.0054	10.3912
7.99564	-27.7068
9.01457	-25.9862
10.0121	-24.2481
11.0118	-22.5157
11.9993	-20.7819
12.9862	-19.04
14.0068	-17.316
15.0104	-15.5823
16.0043	-13.8464
17.0015	-12.132
17.9882	-10.4063
19.0003	-8.6496
20.0058	-6.93885
20.994	-5.19565
21.9912	-3.4657
23.007	-1.73394
24.0028	-0.00971468
25.0018	1.73878
25.9879	3.47235
26.9973	5.1847
28.0091	6.91584
10.9872	-25.9702
12.0049	-24.2561
12.9941	-22.506
14.0082	-20.7932
14.9951	-19.0422
16.013	-17.3128
17.011	-15.588
18.0074	-13.8682
18.9961	-12.1131
19.9978	-10.3864
20.989	-8.66944
21.9933	-6.92967
23.0083	-5.19782
24.0072	-3.4786
25.0068	-1.73484
25.9933	0.00815903
27.0025	1.74383
27.9876	3.46041
29.0005	5.21076
13.0132	-25.9809
13.9997	-24.2377
14.9884	-22.5048
16.0008	-20.7986
17.0101	-19.0443
17.9996	-17.3331
18.9948	-15.594
20.0133	-13.8566
20.9983	-12.1183
22.0088	-10.3863
22.9925	-8.661
24.0046	-6.91702
24.9946	-5.18284
25.9967	-3.47835
27.0003	-1.72055
28	0.00194439
29.005	1.74092
15.0129	-25.9898
15.9878	-24.2424
16.9923	-22.5047
17.9983	-20.7925
19.0125	-19.0525
20.0088	-17.3076
21.008	-15.5801
21.9859	-13.8665
22.9983	-12.1106
24.0027	-10.3837
25.0056	-8.6682
25.9961	-6.92347
26.9886	-5.18727
27.9979	-3.45694
29.0062	-1.74302
20.0004	-20.771
21.0135	-19.0601
21.9859	-17.3206
22.9876	-15.579
24.0094	-13.8473
25.0084	-12.1121
25.9864	-10.3892
27.0028	-8.67389
27.9879	-6.91441
28.9937	-5.1847
23	-19.0526
24.0094	-17.3187
25.0101	-15.5813
26	-13.8564
26.9857	-12.1203
28.0019	-10.3855
-25.5017	14.7195
-25.5098	13.0035
-24.9902	13.8455
-22.9853	17.3328
-22.4882	18.1812
-21.9878	19.0501
-28.4972	6.05646
-28.0016	5.18865
-27.4962	7.80137
-27.4982	6.0679
-26.5107	9.53131
-25.998	8.67451
-25.4858	11.2567
-25.0094	10.3863
-24.4988	11.2584
-23.9954	12.1157
-23.4862	14.7275
-23.4931	13.0017
-21.5096	16.4429
-20.9953	17.3189
-20.0108	19.0458
-19.4936	19.9242
-18.9995	20.7788
-18.5099	21.6407
-28.5121	0.880632
-27.9944	1.7425
-26.9859	3.45963
-26.4935	6.05332
-25.4863	7.78053
-25.5108	6.05481
-24.4898	7.80829
-23.9931	8.65869
-23.4942	11.2578
-23.4935	9.54018
-22.9983	10.4058
-22.4887	12.9893
-22.0094	12.1291
-21.5128	14.736
-21.508	12.9861
-20.9929	13.8544
-20.5029	14.7353
-20.0088	15.6023
-19.5084	16.4428
-18.9861	17.3163
-18.4925	19.9137
-18.5051	18.1912
-17.9943	19.0384
-17.4856	19.9116
-16.9992	20.782
-16.5127	23.3976
-15.9855	22.517
-15.4903	23.3707
-28.0113	-1.7299
-26.5124	2.59879
-26.5025	0.875154
-25.9894	1.73322
-25.5118	2.61195
-24.9912	3.47618
-24.5069	4.34238
-24.0126	5.18305
-23.4918	6.06149
-22.9982	6.9144
-22.5121	9.51774
-21.5108	11.2728
-21.4868	9.52399
-20.5008	12.9808
-20.5083	11.2622
-19.9967	12.1377
-19.5078	14.7332
-19.4942	13.0002
-18.9882	13.8581
-18.5134	16.45
-18.4946	14.7267
-17.5085	16.4409
-16.9857	17.3282
-16.5046	18.182
-16.0087	19.061
-15.4973	21.6399
-15.5096	19.9103
-14.9923	20.7853
-14.4868	21.6596
-14.0041	22.5099
-13.4896	25.1033
-13.4924	23.3948
-12.51	25.1251
-27.992	-5.1846
-27.5124	-2.60083
-27.4857	-4.32573
-26.9883	-3.46884
-26.5014	-0.868397
-26.497	-2.59358
-25.9941	-1.72764
-25.4955	0.869037
-24.9905	-0.0052082
-24.5075	0.87479
-23.9964	1.72165
-23.4897	2.60827
-22.9887	3.47583
-22.4881	6.07492
-20.499	9.53023
-20.5005	7.80124
-20.0028	8.64623
-19.5121	9.5248
-18.5033	12.9907
-18.4916	11.2571
-17.9966	12.1122
-17.5141	12.9859
-17.0089	13.862
-16.0105	15.5899
-15.4977	16.4603
-14.9856	17.329
-14.509	18.1968
-14.0105	19.0515
-13.4851	19.9215
-12.4966	21.6475
-10.9961	24.255
-10.5086	26.84
-10.4969	25.1141
-10.0055	25.9771
-8.99548	27.7005
-25.505	-4.32293
-24.9974	-3.46966
-24.4981	-0.86499
-24.0113	-1.7441
-23.4917	0.866153
-22.5013	2.60939
-22.4941	0.861135
-22.0057	1.72125
-21.4957	4.33733
-21.4961	2.6052
-21.0149	3.46958
-19.989	5.18337
-19.513	7.78022
-19.5149	6.05712
-19.0125	6.9271
-18.5131	7.79655
-17.5132	9.51535
-16.5111	12.9906
-15.9982	12.1278
-15.4879	14.7098
-15.5097	12.9794
-14.9962	13.8643
-14.4863	14.7277
-14.0042	15.5851
-13.4899	18.173
-13.4937	16.4615
-12.9969	17.3063
-12.4937	19.9139
-11.5144	21.6368
-10.5145	23.388
-10.5102	21.6462
-9.99473	22.5242
-8.50046	25.1178
-7.99118	25.9837
-27.5111	-9.53006
-27.5059	-11.2563
-27.0127	-10.3875
-26.4917	-7.80681
-26.0071	-8.65113
-25.5139	-6.06868
-25.4919	-7.78676
-24.9914	-6.92125
-24.4962	-4.32859
-24.4857	-6.0735
-23.5012	-2.59137
-23.4921	-4.3387
-22.5098	-2.61048
-20.9904	0.0126106
-19.9972	1.72369
-19.4863	4.31795
-19.4965	2.59143
-17.9871	5.18452
-17.5095	7.80151
-16.9936	6.91568
-16.509	7.78483
-16.0133	8.66454
-15.4968	11.2442
-14.9894	10.3819
-14.5144	12.9814
-14.4951	11.2623
-13.4853	12.9877
-13.0146	13.8547
-12.5142	16.4689
-12.5073	14.7166
-12.0126	15.5851
-11.5042	18.1962
-11.4941	16.4657
-11.0101	17.3338
-10.4952	19.9173
-8.51134	23.3718
-8.50085	21.6488
-8.00959	22.5274
-7.49974	25.1014
-6.99549	24.2557
-6.49478	26.8617
-6.00394	25.995
-5.50542	28.5789
-5.49479	26.8576
-4.48936	28.5701
-26.5126	-11.25
-25.4944	-9.51342
-25.0021	-10.3815
-24.4995	-7.78868
-23.5072	-6.05168
-22.9857	-6.93737
-22.5114	-4.31707
-22.4859	-6.06161
-21.4912	-2.6023
-20.9983	-3.45775
-20.5101	-2.60184
-20.0074	-1.73276
-18.5085	0.878205
-17.5086	4.32884
-17.0067	3.47881
-16.4932	4.33496
-15.487	7.8022
-15	6.92028
-14.5037	7.80516
-14.0097	8.67384
-13.0005	10.3807
-12.4871	13.003
-12.4976	11.253
-11.505	14.7366
-11.5003	12.985
-10.0119	15.5772
-9.50341	16.4523
-9.00998	17.3075
-8.48978	19.904
-8.48507	18.1846
-6.51413	21.6502
-5.51039	23.3904
-4.49578	26.8357
-4.50571	25.1229
-3.4865	26.8524
-3.00083	27.7275
-2.51377	28.5772
-1.99624	29.4506
-25.5005	-12.981
-25.5073	-14.7128
-24.9931	-13.8588
-24.5007	-12.9765
-23.4923	-9.5151
-22.4912	-7.80247
-22.4984	-9.53817
-22.0009	-8.6558
-21.4878	-6.06997
-20.4953	-6.07171
-19.0067	-3.4599
-18.4859	-2.6035
-18.0076	-1.72009
-17.4941	0.857882
-16.991	0.0143869
-16.4941	0.859555
-15.999	1.72108
-15.5128	4.31875
-15.4946	2.58386
-14.4946	4.33077
-12.9876	6.93614
-12.5103	9.52747
-12.5067	7.7896
-11.4927	11.2593
-11.493	9.53114
-10.4958	12.9817
-10.5019	11.2612
-10.0051	12.1272
-9.49475	13.0053
-8.98923	13.8467
-8.50886	14.7181
-6.99267	17.3106
-6.51155	19.9155
-5.50953	21.6562
-5.0133	20.792
-4.00345	22.5056
-3.51109	23.3811
-2.49719	26.8582
-1.5003	28.5858
-0.513745	28.5716
-24.5137	-16.4538
-23.9969	-15.58
-23.4994	-12.9998
-23.0005	-13.8414
-22.4961	-11.2623
-22.511	-12.9961
-21.503	-9.51755
-21.5028	-11.2585
-20.4948	-7.78023
-20.4958	-9.52639
-19.486	-6.04876
-19.4883	-7.78206
-18.9998	-6.92298
-18.0092	-5.19184
-17.5123	-4.34451
-17.0141	-3.45055
-16.5016	-2.59695
-15.9977	-1.73868
-15.4952	0.879411
-14.9926	0.0106818
-14.5115	0.874979
-13.9994	1.73189
-13.491	4.3448
-13.4926	2.58925
-12.9917	3.45837
-12.494	6.05624
-12.4872	4.32303
-11.9935	5.20101
-11.5041	7.80045
-10.4994	9.52976
-9.51009	11.2524
-8.51203	11.2505
-7.50073	12.9915
-5.4951	18.1718
-5.49896	16.4647
-4.48764	19.9235
-3.48851	21.658
-3.49536	19.9134
-3.0117	20.7703
-2.50975	23.3744
-2.49623	21.6441
-0.987012	24.2627
-0.503268	26.8327
0.509292	28.5783
0.500079	26.856
1.00661	27.7155
1.49915	28.5834
-23.493	-16.4622
-22.5021	-16.4668
-21.4903	-14.7121
-20.9899	-13.8478
-18.9945	-10.401
-18.4889	-9.53596
-17.9911	-8.65808
-17.5141	-7.79971
-17.0047	-6.94312
-16.4976	-4.33528
-15.4954	-2.6034
-15.5138	-4.34091
-14.5047	-0.878844
-14.0088	-1.73029
-13.0144	-0.00521415
-12.5129	2.59305
-12.5	0.878825
-11.992	1.72649
-11.5047	4.33619
-11.0029	3.45569
-10.5013	6.05521
-10.4975	4.32653
-10.0133	5.20796
-9.48625	7.79083
-8.51351	9.52453
-8.50758	7.78014
-7.50831	11.2706
-7.49766	9.52399
-7.01038	10.4003
-5.5094	14.7216
-5.48889	12.9833
-4.99445	13.8578
-4.51448	14.7305
-3.50028	18.1938
-3.00656	17.3251
-2.51107	19.9258
-2.50573	18.2008
-1.98601	19.0448
-1.51165	21.6566
-0.996809	20.7857
-0.50091	23.3696
-0.49841	21.6608
0.496152	25.1054
0.990222	24.2501
1.50659	26.8578
1.49854	25.1208
2.99094	27.7249
-22.0067	-19.0605
-21.507	-16.4677
-21.0019	-17.3108
-20.5128	-14.7345
-20.4894	-16.4636
-19.4916	-12.9803
-19.4949	-14.722
-17.4936	-9.52907
-17.4915	-11.2609
-16.5073	-7.78517
-15.5043	-7.80644
-15.0098	-6.93463
-14.5055	-4.32104
-14.4922	-6.06171
-13.5027	-4.33338
-12.5	-0.857627
-12.4943	-2.60567
-12.008	-1.7444
-10.4919	2.60659
-9.5146	4.33952
-8.99797	3.45192
-8.50005	6.05625
-8.00308	5.21068
-7.48781	6.0764
-6.99888	6.94187
-6.49853	9.52588
-6.50727	7.80597
-5.9915	8.67354
-5.50757	11.2467
-4.99032	10.3966
-4.50304	12.9848
-4.51267	11.253
-4.00884	12.1136
-3.49335	14.736
-3.50465	12.9949
-3.01094	13.8471
-2.49332	14.7372
-1.50752	18.1972
-1.01148	17.3129
-0.495927	19.9089
0.00114004	19.0582
0.487653	21.6565
1.00798	20.7831
1.49835	23.3857
2.00639	22.5159
2.48511	25.1075
4.48657	28.5733
4.49443	26.8325
5.00099	27.7067
5.49845	28.5656
-20.4976	-18.1886
-20.514	-19.9041
-18.5041	-16.4685
-17.9982	-15.5846
-15.4969	-11.2529
-14.992	-10.4065
-14.4911	-7.79783
-14.4977	-9.52693
-12.9866	-6.93775
-12.5063	-4.33677
-12.5057	-6.05203
-12.0096	-5.18696
-11.4996	-4.31765
-10.4856	-2.58836
-9.99055	-1.73155
-9.50974	0.877702
-9.49352	-0.851552
-8.49095	2.58358
-8.49759	0.868086
-8.00893	1.73053
-7.48854	2.59564
-6.49895	6.0707
-6.49826	4.33705
-6.00735	5.19921
-5.01012	6.91965
-4.49204	9.52328
-3.99175	8.67004
-3.50363	11.2575
-2.98577	10.3905
-1.51483	12.9822
-0.490757	16.4508
-0.0122752	15.5876
1.01056	17.3347
1.49535	19.9168
1.49408	18.1874
1.98592	19.0618
2.49914	21.6593
2.51148	19.9089
2.98558	20.7987
3.50632	21.6623
6.51428	26.853
-19.5079	-19.9138
-17.9933	-19.0381
-17.5143	-16.4451
-17.4887	-18.1874
-17.0016	-17.3288
-16.5138	-14.7141
-16.4994	-16.4693
-16.002	-15.5956
-15.4893	-14.7271
-15.003	-13.8652
-14.4992	-11.244
-14.5028	-12.9941
-14.0145	-12.121
-12.9907	-10.4064
-12.4942	-7.78538
-11.4985	-7.78043
-11.0098	-6.93912
-10.4857	-6.06101
-9.49328	-2.60673
-9.0056	-3.46905
-8.48968	-0.865909
-8.50652	-2.59056
-7.49355	0.871565
-7.5144	-0.86766
-6.49913	2.59713
-5.51326	4.34506
-5.50272	2.59485
-4.50374	6.07017
-4.49781	4.32429
-3.99851	5.18599
-3.50594	7.79193
-3.50675	6.07028
-2.98603	6.92766
-2.50305	9.51839
-2.01257	8.67096
-1.48537	11.2664
-1.50176	9.53454
-0.99913	10.3836
-0.51311	12.9981
-0.501867	11.2437
0.490734	14.7117
2.99466	17.3354
3.49579	19.9263
4.01183	19.0383
4.4878	21.6606
4.50973	19.9243
5.49055	21.6594
6.48557	23.3882
6.9913	24.2385
7.49377	26.8329
7.99167	25.9846
-18.0012	-22.5044
-17.4951	-19.9225
-17.5105	-21.6528
-17.0091	-20.7732
-16.5067	-18.1956
-16.498	-19.9248
-16.0119	-19.0496
-15.4959	-16.447
-15.5066	-18.1977
-14.9925	-17.3309
-13.9992	-15.5974
-13.5041	-13.0053
-13.502	-14.7121
-12.5069	-12.9783
-11.4922	-11.2441
-10.4946	-7.77977
-9.49368	-7.7844
-8.99155	-6.94222
-8.49684	-4.31726
-8.01055	-5.1916
-7.50762	-2.59416
-6.99034	-3.45985
-6.5117	-0.878626
-6.00304	-1.72882
-5.49078	-0.876428
-4.48763	2.59293
-4.00525	1.72916
-3.50085	2.60567
-2.50841	6.06493
-2.49488	4.31618
-1.49029	7.78213
-1.49531	6.06042
-0.98713	6.93398
-0.508927	9.54124
-0.485998	7.79862
-0.00933946	8.65353
0.513295	11.2579
1.0128	10.3942
1.49238	12.9755
1.51142	11.2593
3.5096	16.4597
3.48601	14.7341
4.49083	18.1957
5.00996	17.3282
5.50589	19.9331
5.4962	18.2003
6.50784	21.6623
6.5118	19.9205
7.50772	21.6436
8.51476	25.1162
8.50914	23.3697
8.98997	24.2411
9.50606	26.8569
9.48897	25.1251
10.0094	25.9867
10.492	26.8487
-16.4964	-21.6582
-16.5021	-23.3957
-15.4865	-19.9272
-14.9933	-20.7867
-14.4912	-18.1743
-13.9977	-19.0391
-13.4926	-16.4427
-12.9923	-17.3255
-12.5137	-14.7094
-12.4939	-16.4449
-11.5	-12.9993
-11.4889	-14.7312
-10.994	-13.8565
-9.49294	-9.51198
-9.49221	-11.2504
-8.49905	-7.78629
-8.50688	-9.54065
-7.99573	-8.65829
-7.51006	-6.07254
-6.99289	-6.93395
-5.99708	-5.2003
-5.49967	-4.32135
-4.51161	-0.880332
-4.50085	-2.58411
-4.01336	-1.73667
-3.50306	0.862094
-3.51374	-0.87243
-3.0065	0.00985691
-2.50121	2.60878
-1.98702	1.73395
-1.50745	4.32734
-1.48521	2.58992
-0.505764	6.05639
-0.50871	4.32251
-0.012171	5.19773
0.498633	7.80228
0.493731	6.04897
1.00286	6.93341
1.49882	9.52218
1.51364	7.77964
2.00426	8.6637
2.50158	9.51764
3.50484	13.0053
3.50498	11.2556
4.51165	14.7155
4.5077	12.9846
4.99707	13.8563
6.49238	16.4614
8.00237	19.0408
8.51304	21.6618
8.50355	19.9294
9.00151	20.7928
9.50024	21.6539
10.0148	22.5135
10.5122	23.3904
10.989	24.2563
11.4887	25.118
-14.9891	-24.2343
-14.5061	-21.6456
-14.0105	-22.5219
-13.5119	-21.6515
-12.5083	-18.1787
-12.0091	-19.0449
-11.4939	-16.4483
-10.9999	-17.3209
-10.4875	-16.4445
-9.50763	-13.0027
-9.51385	-14.7125
-8.51142	-12.9878
-7.99746	-12.1242
-7.49729	-9.5293
-7.50438	-11.2482
-6.99039	-10.4019
-6.5084	-7.8034
-6.51294	-9.52074
-6.01344	-8.6591
-5.50306	-6.07016
-5.48789	-7.79089
-5.00283	-6.93586
-4.50829	-4.34266
-4.00881	-5.20203
-3.50989	-2.596
-2.98708	-3.46597
-2.48558	-0.865099
-2.00502	-1.72312
-1.49807	0.871934
-1.01113	-0.00171693
-0.511465	2.602
-0.514357	0.875613
0.514071	4.32793
1.00204	3.46147
1.51255	6.04842
2.50356	6.0475
3.0086	6.92743
4.00068	8.66237
4.49673	11.2489
4.51001	9.51589
5.50852	12.9775
6.01378	12.1353
6.509	14.726
6.49662	12.9977
6.99618	13.8532
7.51331	16.4427
8.00608	15.5927
8.50898	18.1934
8.51024	16.4553
9.48659	19.9046
9.50161	18.2007
9.99345	19.067
10.9886	20.7959
11.9971	22.5268
12.4967	25.1225
-14.5126	-25.1181
-13.9935	-25.9933
-13.51	-23.3865
-13.5014	-25.109
-12.9888	-24.2561
-12.0136	-22.5051
-11.5107	-21.6557
-10.9997	-20.773
-9.50767	-16.462
-9.5124	-18.1833
-8.4864	-14.7357
-8.51464	-16.4515
-7.50847	-12.9968
-6.98965	-13.849
-6.50894	-11.2546
-6.4879	-12.984
-5.50692	-9.54062
-5.50084	-11.2689
-5.01186	-10.388
-4.50282	-7.80844
-4.5015	-9.53773
-3.98532	-8.65135
-3.51122	-6.0521
-3.50027	-7.7998
-2.49678	-4.33317
-1.99269	-5.2013
0.00998601	-1.7366
0.502027	0.874511
0.488933	-0.87622
1.00188	-0.00791521
1.48788	2.59623
1.99717	1.73905
2.49094	4.33314
2.48565	2.58646
3.50967	4.34148
3.98736	5.19534
4.51407	7.79387
5.00096	6.93021
5.50584	9.52983
6.50581	9.53524
7.50803	12.9799
8.50262	12.9982
8.99454	13.8584
9.49768	14.7139
10.5018	18.1845
11.0029	17.3079
11.4873	19.9291
11.4927	18.1882
12.0145	19.0419
12.5072	19.9318
13.0013	20.7987
13.5041	21.6435
14.0145	22.5314
14.9859	24.2509
15.5021	25.1196
-12.5074	-25.1216
-11.9966	-25.9796
-11.5086	-23.3834
-10.4886	-21.6471
-10.0053	-22.5304
-9.48828	-19.9279
-9.49579	-21.6551
-8.49297	-18.1836
-7.98858	-19.0503
-7.5116	-16.453
-7.50632	-18.1871
-7.01306	-17.3239
-6.49735	-14.716
-5.4865	-14.7294
-4.51488	-11.2691
-4.00169	-12.1302
-3.48547	-9.52351
-3.49995	-11.2498
-1.50331	-6.06502
-1.49533	-7.80269
-0.49844	-4.32135
-0.497904	-6.06773
-0.0105881	-5.1848
0.509491	-2.58469
0.487211	-4.3193
0.992268	-3.47724
1.4951	-2.59897
1.99296	-1.72518
2.48793	0.855429
2.5109	-0.866057
3.99758	1.74019
5.00418	3.47235
5.48518	6.06052
5.49382	4.33252
5.98976	5.18688
6.48619	7.79279
6.49389	6.07588
6.98927	6.93591
7.48869	9.51447
8.00326	8.67517
8.48819	9.53574
9.01446	10.378
9.504	12.9922
9.50483	11.2524
9.9854	12.1369
10.5069	14.7122
10.4998	12.9754
11.012	13.8691
11.5045	16.4464
12.4995	18.1974
12.4963	16.4603
12.994	17.3139
13.5034	19.9085
13.5129	18.1899
14.0143	19.0569
14.4948	19.9087
15.5009	23.3708
15.499	21.6598
15.9865	22.5106
16.4968	23.3913
-10.0032	-25.9955
-9.51293	-25.1064
-8.99392	-24.2365
-8.48544	-21.6653
-8.48774	-23.3905
-7.98878	-22.5311
-7.51207	-19.9332
-7.51248	-21.6573
-6.99026	-20.7925
-6.50472	-19.9307
-6.00636	-19.0475
-5.0114	-17.3243
-4.50764	-14.708
-3.99965	-15.5826
-3.5015	-13.0037
-3.4992	-14.7101
-3.00751	-13.8559
-2.491	-11.2666
-2.48783	-12.9813
-1.50589	-9.52075
-1.0028	-10.3878
-0.505913	-7.78395
-0.507404	-9.51412
0.504596	-6.05988
0.488086	-7.78771
0.999538	-6.94172
1.50607	-4.32738
1.99341	-5.18209
2.98955	-3.4705
3.48937	-0.867049
3.51404	-2.6074
4.4995	0.851937
5.51137	0.867863
5.9901	1.7452
6.4888	4.33297
6.48941	2.58823
7.50868	4.33153
8.49578	6.05497
9.00552	6.94175
9.50771	9.51384
9.51071	7.79681
10.4943	9.52582
11.9928	12.1378
12.4987	14.7238
13.0031	13.8569
13.4917	16.4412
13.5049	14.7279
14.4941	16.4537
14.9897	17.3218
15.5052	18.1719
16.498	21.649
16.999	20.7893
17.9853	22.5287
-9.49269	-26.8354
-8.98619	-27.7086
-8.49937	-25.1039
-8.51463	-26.8516
-8.00913	-25.9847
-7.50986	-23.3905
-7.49718	-25.1212
-6.99628	-24.235
-6.49822	-23.368
-5.49517	-19.9312
-5.49703	-21.6414
-4.49331	-18.1772
-4.50226	-19.9054
-3.49725	-18.1796
-2.50065	-14.7298
-2.50803	-16.4657
-1.49087	-14.7344
-0.491251	-11.2604
-0.485657	-12.9988
-0.00204177	-12.1254
0.509123	-9.53122
0.493682	-11.2671
2.51247	-7.78369
3.49377	-4.32826
3.9868	-5.1812
4.98913	-3.45172
5.49145	-0.874764
6.50854	0.857788
6.5052	-0.877681
7.98771	1.72378
8.50646	4.33324
8.99847	3.45546
9.48591	6.06209
9.51026	4.33845
10.5096	7.78616
11.5085	7.80824
12.5079	9.53637
13.0123	10.4041
13.9962	12.1353
14.4985	12.9801
15.509	16.4422
16.0107	15.5783
16.9959	17.3216
17.493	19.9327
17.4999	18.1859
18.4886	21.6378
19.0145	20.7768
-7.5096	-26.8582
-6.48613	-25.1199
-5.98881	-25.9725
-4.99777	-24.26
-4.4921	-21.6475
-3.98558	-22.5315
-3.48897	-19.912
-2.9994	-20.7754
-1.50819	-18.1999
-0.999796	-17.3194
-0.508624	-16.4535
0.485202	-14.7129
1.01139	-13.8543
1.51125	-11.2527
1.50139	-13.0012
3.01033	-10.4071
3.49258	-7.80519
3.98685	-8.66066
5.0149	-6.9349
5.48918	-6.06994
6.00789	-5.20329
7.50997	-0.853193
7.50504	-2.58518
7.98725	-1.73658
8.49615	0.858199
8.48736	-0.863424
9.01021	0.00792282
9.48556	2.59239
9.99055	1.72239
10.5058	4.33705
12.506	6.0718
13.5116	9.51491
13.5085	7.80266
14.0124	8.65457
14.5136	11.2685
14.9855	10.4039
15.4956	12.9844
15.5078	11.262
15.9944	12.1267
16.4943	14.7148
16.485	13.004
17.0052	13.8476
17.4894	16.4476
17.4907	14.7301
18.5017	16.4439
18.9879	17.3173
19.4937	19.9053
19.5047	18.1737
20.001	19.0652
-5.48741	-26.8593
-5.49761	-28.5799
-5.01434	-27.7218
-4.4982	-25.1228
-3.98917	-25.9829
-3.50888	-23.3868
-3.51436	-25.1297
-3.01041	-24.2522
-2.0149	-22.5023
-1.50339	-19.9179
-1.50155	-21.6576
-0.508375	-18.1956
-0.50024	-19.9195
0.00147644	-19.0396
0.510577	-16.4594
0.500448	-18.1908
0.986304	-17.3186
1.50198	-14.7098
2.00095	-15.5819
4.50437	-9.51993
5.49724	-7.80723
6.00585	-8.64862
8.49118	-2.60317
8.50312	-4.32987
8.999	-3.47595
9.49096	-0.877088
9.99449	-1.7405
10.5133	0.875458
11.4997	2.60045
11.4872	0.859784
12.0068	1.73398
13.5118	4.32708
14.5132	6.06006
14.9962	6.93371
15.5103	9.51317
16.5045	11.2453
16.4915	9.5184
17.4932	11.2725
18.49	12.9834
18.9864	13.8595
20.4949	18.1975
20.4893	16.4684
20.9992	17.3249
21.4954	18.1956
22.0048	19.0523
-4.48642	-28.5815
-4.00356	-29.4454
-3.50622	-28.5742
-3.01428	-27.7088
-2.50655	-25.1109
-2.49934	-26.8423
-2.00822	-25.9678
-1.48588	-23.3956
-0.509089	-21.6449
-0.50758	-23.392
0.500098	-19.9301
0.501829	-21.6554
1.0135	-20.7873
1.48791	-18.1799
2.49019	-16.4608
2.50726	-18.1828
4.48911	-14.7336
4.99677	-13.8588
5.50504	-11.2548
6.00035	-12.1189
6.49901	-9.53742
6.49901	-11.2624
7.00945	-10.3864
7.50901	-7.78394
7.99977	-8.67516
8.50204	-6.07112
8.51148	-7.80159
9.51239	-4.32831
10.4905	-2.60947
10.49	-4.31963
11.0051	-3.47026
11.5023	-2.58562
11.9904	-1.73395
12.9925	-0.014946
13.5075	2.59925
13.4864	0.85164
14.0027	1.74195
14.5092	4.33422
15.5123	4.32112
15.9919	5.18361
16.4923	7.80458
16.9867	6.9401
17.989	8.66244
18.5143	11.2561
18.9861	10.3986
19.5075	11.2495
19.9876	12.1119
20.5041	13.0043
21.5066	16.4542
21.4917	14.7253
22.4866	18.1871
22.5111	16.4609
-2.0094	-29.433
-1.49398	-28.5769
-1.0006	-27.7128
-0.489221	-25.1075
-0.502296	-26.8487
-0.00217809	-25.9818
0.999123	-24.2386
1.49183	-21.6494
1.99041	-22.5072
3.50354	-18.1909
4.00997	-19.0556
5.00314	-17.3108
6.00972	-15.5932
6.50977	-14.7194
7.01396	-13.8614
7.50683	-12.9985
8.9953	-10.3818
9.512	-7.80145
9.49574	-9.52469
10.0126	-8.65044
10.5056	-6.05788
11.5025	-4.32365
11.5013	-6.06487
12.499	-4.32288
12.998	-3.46867
13.5053	-0.856815
13.498	-2.60597
14.0017	-1.71837
14.5054	-0.874466
14.9959	-0.000333175
15.4917	0.853442
16.4926	4.33201
16.4888	2.59208
17.5018	4.31956
18.0073	5.19725
18.498	6.06652
18.9952	6.91749
19.501	9.51444
19.4922	7.79116
21.0006	10.4005
21.4974	12.9832
22.4957	14.7167
24.0025	15.5742
-0.503445	-28.5701
-0.00277457	-29.4372
0.498889	-26.8324
0.514374	-28.5754
1.50402	-25.126
1.50339	-26.8604
1.99688	-25.9803
2.49613	-25.1194
3.51294	-21.6376
3.48578	-23.3818
4.48785	-21.6474
5.01003	-20.7881
5.50238	-18.1906
5.49333	-19.9256
5.99466	-19.0454
6.50691	-16.4535
6.49437	-18.1912
7.50236	-14.7312
9.50796	-11.2652
9.488	-12.99
10.5097	-9.52768
10.4862	-11.2529
10.9913	-10.4028
12.0076	-8.64934
12.4939	-6.06766
13.006	-6.91438
14.0038	-5.20398
14.4884	-4.33681
14.9984	-3.46659
15.988	-1.73093
16.4966	-0.859079
17.4976	0.857187
18.0069	1.71934
19.5134	4.33744
19.9999	5.19422
20.5131	7.79012
21.5058	7.80604
21.986	8.65745
22.49	11.245
22.5034	9.53444
23.003	10.3811
23.4916	12.9774
23.5094	11.2551
24.0035	12.118
24.4936	14.7186
25.4914	14.7153
1.50322	-28.5678
2.49172	-26.8602
3.5099	-25.1092
4.48847	-23.3919
4.5099	-25.1075
5.01212	-24.2344
5.51409	-21.6451
5.98992	-22.5143
7.01334	-20.7711
7.50671	-19.9056
8.00498	-19.0536
8.49628	-16.4477
8.50935	-18.1788
8.99252	-17.3059
10.0063	-15.5908
10.4856	-12.9772
10.5125	-14.732
10.9859	-13.854
11.503	-11.2666
11.9929	-12.1113
12.4938	-11.2584
13.0108	-10.3792
14.5037	-6.06709
15.4883	-4.33659
16.4979	-2.59153
16.5093	-4.33065
17.4991	-0.855143
17.9928	-1.72011
18.5118	0.8714
19.0075	-0.014505
19.5136	2.5868
19.5068	0.857739
19.987	1.72392
20.5148	2.59809
21.0092	3.45246
22.4903	7.79632
23.4938	9.52988
24.4872	9.53431
25.009	10.3977
25.4894	11.2592
26.5034	12.9785
3.4917	-28.5932
3.99381	-29.4571
5.5003	-25.1151
5.50939	-26.8389
6.00384	-25.9726
6.4904	-25.1118
6.9902	-24.2445
7.51152	-23.3934
7.98901	-22.5236
8.5054	-19.9299
8.49091	-21.6398
8.98699	-20.7786
9.50978	-18.1984
9.502	-19.9286
11.5116	-16.445
12.0115	-15.595
12.5078	-14.7081
14.0063	-12.1214
14.4889	-9.51658
14.9946	-10.4044
15.4918	-9.52215
15.99	-8.65437
16.5082	-7.80014
16.9935	-6.9168
17.5113	-6.05925
18.5117	-2.58843
18.4866	-4.33622
18.9933	-3.46929
19.9912	-1.72742
20.5064	0.853332
20.49	-0.87076
21.4915	0.879319
22.0066	1.72359
24.4933	7.7925
24.5072	6.05059
24.996	6.92142
25.4872	7.7862
25.9937	8.67147
26.491	9.53599
5.50875	-28.5845
6.50138	-26.8586
6.99035	-27.7117
8.00005	-25.9757
8.49971	-23.3795
8.51238	-25.1049
9.51307	-21.6433
9.51227	-23.3826
10.5116	-19.9076
10.5077	-21.6623
11.4964	-18.1946
11.9875	-19.0647
12.5009	-16.4548
13.014	-17.3094
13.4927	-14.7267
14.0043	-15.5779
14.4892	-12.9949
14.4873	-14.7329
14.9894	-13.8508
15.4991	-11.2444
15.9958	-12.1317
17.0045	-10.3941
17.5022	-7.78188
17.5084	-9.52046
18.5036	-6.07506
19.5003	-6.05812
20.5004	-2.606
20.4942	-4.34247
21.5139	-0.871032
21.4877	-2.59323
22.4917	0.880532
22.4994	-0.862118
23.0005	-0.00327545
23.5003	0.880767
24.5105	2.59587
25.0118	3.45643
25.4888	6.071
26.5094	7.78985
26.4873	6.06755
27.01	6.91844
27.5005	9.5218
9.98961	-25.9926
10.5148	-23.3754
11.0093	-24.246
11.9883	-22.5092
12.5113	-19.9207
12.5061	-21.6552
13.0059	-20.7723
13.493	-18.1718
13.9977	-19.0636
14.502	-16.446
14.4891	-18.1878
15.0072	-17.3242
15.4999	-14.7363
15.4991	-16.4419
16.0099	-15.5771
16.5022	-12.9994
16.9856	-13.867
18.0056	-12.1392
18.5094	-9.52118
18.4942	-11.2702
18.9987	-10.3992
20.0109	-8.65215
20.5089	-6.0496
20.9977	-6.92473
22.5074	-2.60083
23.5009	-0.868573
23.4944	-2.59391
23.9997	-1.72499
24.4895	0.874729
24.5018	-0.879287
25.4946	2.59762
25.4876	0.876383
26.013	1.71722
26.5022	2.60392
27.9967	5.20448
11.9949	-25.9873
12.4863	-23.3684
12.499	-25.1061
13.0048	-24.2571
14.5125	-19.9054
14.9944	-20.7952
15.4895	-18.1937
15.4918	-19.9212
15.9887	-19.0557
16.4965	-16.4606
16.4999	-18.1911
16.9969	-17.3336
17.4938	-14.7084
18.5012	-14.7249
20.4927	-9.52333
20.5049	-11.2673
21.0091	-10.3948
21.4973	-7.80733
21.9941	-8.64642
22.5139	-7.79983
22.9875	-6.9262
23.4961	-6.07525
24.4912	-2.59591
25.4947	-0.879473
26.012	-1.72581
26.5085	-0.864472
26.991	-0.00420735
28.4986	4.3174
28.4999	2.60384
13.5023	-25.1241
14.4881	-23.3965
14.4936	-25.1057
16.0141	-22.5281
16.4913	-19.9151
17.5142	-18.187
17.5009	-19.9242
17.9909	-19.0578
18.4871	-16.4447
18.5076	-18.1862
19.4888	-16.4681
20.012	-15.5954
20.5118	-14.712
21.497	-11.2541
23.0008	-10.3992
23.4953	-7.78016
23.5012	-9.52554
24.512	-7.78886
25.4989	-4.32451
25.5092	-6.05332
26.5013	-4.32956
26.9994	-3.45941
27.4936	-0.872281
28.511	0.852361
15.5051	-25.1195
16.5066	-23.3814
17.5042	-21.6632
18.5021	-19.9302
18.99	-20.785
19.4918	-19.9095
20.0042	-19.0623
20.4975	-16.4659
21.0127	-17.3144
21.5109	-16.4441
22.4909	-12.9755
22.5125	-14.7138
23.513	-11.27
24.5049	-9.53934
25.0067	-10.3953
25.5057	-7.78057
25.5114	-9.52239
26.9936	-6.91386
28.0123	-5.18179
28.4998	-2.59274
20.501	-19.9087
21.4921	-18.1843
21.9916	-19.0659
22.4941	-16.4675
22.9932	-17.3078
23.4905	-14.7273
25.5079	-11.2465
25.4851	-12.9823
26.4984	-9.53803
26.5058	-11.254
26.9972	-10.4004
27.49	-7.80238
24.4984	-16.4415
25.4985	-14.7348
26.5039	-12.978
27.509	-11.2509
