-16.8303	8.41047
-16.8303	8.4105
-17.1728	11.9317
-17.1728	11.9317
-16.3643	13.7394
-16.3643	13.7394
-16.8303	8.4105
-16.8302	8.41045
-16.8302	8.4105
-16.8302	8.41045
-18.5718	-2.36006
-18.5718	-2.36011
-17.4882	6.53054
-16.8302	8.41045
-16.8302	8.41045
-14.8559	8.70881
-18.5718	-2.36011
-18.5717	-2.36017
-14.8559	8.70881
-13.7219	7.22082
-12.3833	14.143
-12.3833	14.143
-6.76462	18.8497
-6.7646	18.8496
-19.4101	-5.08892
-19.4101	-5.08892
-17.6807	-4.08438
-17.6807	-4.08432
-12.4286	1.32974
-12.4285	1.32974
-12.8617	9.0123
-10.8873	9.14259
-6.20603	16.9257
-6.20598	16.9257
-17.6808	-4.08429
-17.6807	-4.0843
-17.6807	-4.08432
-17.6806	-4.0843
-12.4285	1.32974
-12.4285	1.32972
-6.20598	16.9257
-6.206	16.9256
-2.09191	20.0258
-2.09191	20.0258
-2.09191	20.0258
-2.09187	20.0258
-20.4475	-8.78777
-20.4476	-8.78776
-19.4778	-7.05104
-19.4777	-7.05107
-17.6807	-4.0843
-17.6806	-4.0843
-14.3694	-2.33534
-14.3694	-2.33534
-10.51	1.90036
-10.5101	1.90035
-10.51	1.90036
-8.68592	2.69002
-10.1553	5.54501
-10.1553	5.54508
-9.7386	7.50766
-8.88388	9.26184
-20.4476	-8.78776
-20.4476	-8.78775
-14.2816	-4.063
-14.2816	-4.06302
-8.22279	5.92675
-8.22279	5.92675
-2.78996	15.2509
-2.78996	15.2509
-2.22517	16.5724
-2.22512	16.5724
-17.1599	-11.9372
-17.1599	-11.9372
-17.1599	-11.9372
-17.1599	-11.9371
-15.3751	-5.17707
-15.3752	-5.17711
-12.2806	-4.18749
-12.2805	-4.18754
-11.2118	-2.46449
-11.2118	-2.46454
-11.6303	-0.510054
-11.6303	-0.510054
1.20927	18.4352
1.20927	18.4352
1.20927	18.4352
1.20927	18.4352
-15.985	-13.5657
-14.8191	-15.1813
-15.3778	-8.38458
-14.9598	-7.13381
-12.2805	-4.18754
-12.2805	-4.18761
-12.9997	-2.33869
-12.9997	-2.33869
-11.2118	-2.46454
-11.2118	-2.4646
-11.2118	-2.46454
-11.2118	-2.46455
-7.67982	2.97867
-7.67982	2.97867
-3.59019	8.44087
-3.59014	8.44091
-1.30898	13.4503
-1.30898	13.4503
0.312636	14.5696
0.312676	14.5695
0.666099	16.5232
0.312676	14.5695
0.666099	16.5232
0.66562	16.5288
1.72228	20.3627
1.72226	20.3626
3.70682	22.7671
3.7068	22.7671
-14.8191	-15.1813
-14.8191	-15.1813
-14.8191	-15.1813
-14.8191	-15.1813
-14.8191	-15.1813
-14.8191	-15.1813
-14.3932	-10.1299
-14.3933	-10.1298
-13.4727	-5.78729
-13.4727	-5.78724
-13.4727	-5.78724
-12.2805	-4.18761
-11.2118	-2.4646
-11.2118	-2.46455
-6.5688	1.31397
-6.5688	1.31397
-5.80597	5.19147
-5.80597	5.19147
-5.80597	5.19147
-5.74992	5.325
-4.19108	6.56064
-4.19102	6.56061
-0.0361528	10.6308
-0.0361281	10.6309
0.429563	12.5747
0.429513	12.5747
0.429563	12.5747
0.429598	12.5748
0.312676	14.5695
0.312676	14.5695
0.312676	14.5695
0.312658	14.5695
3.6645	20.7763
3.66452	20.7762
3.66453	20.7761
3.66453	20.7761
3.66453	20.7761
3.66452	20.7762
3.66453	20.7761
3.66459	20.7761
-16.7533	-15.3662
-16.7533	-15.3663
-11.7916	-6.13572
-11.7915	-6.1357
-11.7915	-6.1357
-11.7915	-6.1357
-11.7915	-6.1357
-10.5248	-7.13071
-6.51294	1.22444
-6.51294	1.22444
-4.57538	1.65438
-4.57535	1.65445
-2.62779	7.80702
-0.99299	8.87066
-0.99299	8.87066
-0.992966	8.8706
0.429598	12.5748
0.42966	12.5748
0.42966	12.5748
2.04502	13.6303
-12.9899	-9.98774
-12.9899	-9.98778
-12.2825	-8.09378
-12.2825	-8.09378
-4.84602	-0.583828
-4.84598	-0.583878
-2.58262	1.98781
-2.58253	1.9878
-0.992966	8.8706
-0.992933	8.87065
2.04497	13.6303
2.04502	13.6303
2.04502	13.6303
2.04508	13.6304
5.62881	20.3957
5.62886	20.3957
-13.156	-18.8349
-13.156	-18.8349
-15.1545	-18.9045
-15.1545	-18.9045
-14.2255	-17.1553
-14.2256	-17.1553
-14.2255	-17.1553
-13.0135	-15.6289
-13.6838	-11.8623
-12.9899	-9.98778
-8.69905	-7.75955
-8.699	-7.75952
-1.28396	5.27168
-0.508179	6.73213
3.93979	12.9964
3.93975	12.9964
3.93979	12.9964
3.93979	12.9963
6.16963	16.885
6.1696	16.8849
6.89408	22.1137
6.89408	22.1137
-13.0135	-15.6289
-13.0134	-15.6289
-12.1317	-13.118
-12.1317	-13.118
-6.08222	-4.85627
-6.08228	-4.85632
-4.52379	-3.58124
-3.53673	-2.06908
-4.52379	-3.58124
-4.52381	-3.58118
-3.53673	-2.06908
-3.53668	-2.06902
-3.6571	-0.0743941
-3.6571	-0.0743941
-1.35086	1.28174
-1.35167	1.27807
0.545806	4.50557
0.545806	4.50557
0.545806	4.50557
0.545901	4.50559
1.44015	6.29003
2.69868	7.36987
4.54333	8.13515
4.54108	8.12886
5.55361	9.89571
6.49908	10.1647
5.55361	9.89571
4.9986	11.3225
5.9065	13.0555
5.90645	13.0556
10.8539	21.5985
10.8539	21.5984
-11.1941	-19.2316
-11.194	-19.2317
-12.299	-17.6356
-12.4055	-17.5371
-11.1765	-14.7966
-10.8973	-15.5265
-6.86203	-8.52524
-7.14881	-6.55506
-6.86203	-8.52524
-6.86197	-8.52529
1.8506	3.67888
2.55682	4.63192
6.49908	10.1647
6.49908	10.1647
6.49908	10.1647
6.50258	10.1666
7.66162	14.0268
7.66169	14.0268
8.15396	17.3001
8.15396	17.3001
9.09648	19.0621
9.09648	19.0621
9.60277	20.0343
9.6028	20.0343
-9.19748	-19.4511
-9.19741	-19.4511
-9.53595	-13.6087
-9.53595	-13.6087
-9.53595	-13.6087
-8.68079	-13.5147
-6.86197	-8.52529
-6.86197	-8.52529
-6.86197	-8.52529
-5.71932	-6.88345
-1.58226	-2.47494
-0.312982	-1.16309
2.19997	1.71333
2.19997	1.71333
4.53081	4.82148
5.42192	6.31924
5.42188	6.31932
5.42192	6.31924
5.42188	6.31932
5.42188	6.31937
5.8485	8.27443
5.84845	8.27441
9.37809	15.7174
9.37805	15.7173
11.0474	18.6451
11.0474	18.6451
-10.3727	-21.0623
-10.3727	-21.0623
-8.99994	-19.0526
-9	-19.0526
0.426645	-2.56726
2.30289	-2.25604
3.65506	-0.75881
4.12166	1.16271
3.65506	-0.75881
3.65614	-0.789931
5.12544	2.90771
5.12548	2.90774
8.60566	12.899
8.60566	12.899
9	15.5885
9	15.5885
9	15.5885
9.37805	15.7173
11.384	15.8068
11.3882	15.8068
11.384	15.8068
11.3841	15.8068
12.909	17.9053
12.909	17.9053
14.8309	17.4213
14.8309	17.4214
16.7955	17.0466
16.7955	17.0467
-9.07197	-22.5717
-9.07204	-22.5717
-9.07197	-22.5717
-9.07189	-22.5717
0.520055	-6.97887
0.520133	-6.97887
0.796307	-3.53916
0.803474	-3.53747
3.65614	-0.789931
3.65448	-0.793806
10.2827	11.8385
10.2827	11.8386
13.3971	15.9635
13.5112	15.9264
-6.4383	-21.7445
-6.42942	-21.7636
-5.53126	-19.9565
-5.53116	-19.9565
-7.02847	-18.6449
-7.02842	-18.6448
-4.03394	-13.5686
-4.03394	-13.5686
-2.99498	-11.8705
-2.99498	-11.8705
3.65448	-0.793806
4.79542	0.48217
8.72534	4.51112
8.7254	4.51118
9.34516	6.41267
9.34522	6.41273
9.75836	8.37041
9.75836	8.37041
9.75836	8.37041
10.4134	9.81803
10.4134	9.81803
10.7314	7.86805
11.8354	12.9219
11.8354	12.9219
13.5113	15.9264
13.5112	15.9264
13.5113	15.9264
13.5113	15.9264
-4.46192	-21.6408
-4.462	-21.6408
-5.53116	-19.9565
-5.52865	-19.9541
-5.53589	-19.9609
-5.53589	-19.9609
-5.12121	-18.0192
-3.9583	-18.7228
-2.02286	-13.584
-2.02278	-13.584
8.16852	2.58911
8.16858	2.58918
8.7254	4.51118
8.7254	4.51118
13.8474	12.8153
14.2091	12.6568
-5.37204	-23.4231
-5.37197	-23.4231
-5.52865	-19.9541
-3.9582	-18.7229
-3.95824	-18.7228
-3.95824	-18.7228
-3.95824	-18.7228
-3.9583	-18.7228
-3.95824	-18.7228
-3.9582	-18.7229
-1.22984	-15.4634
-1.22984	-15.4634
-2.02278	-13.584
-0.541602	-14.192
8	0
8.01756	-0.0454971
9.5957	1.18236
9.5957	1.18229
10.1107	3.09183
10.1106	3.09183
10.1107	3.09183
10.1108	3.0918
10.1106	3.09183
10.1106	3.09183
15.3552	15.1306
15.3552	15.1306
16.4005	13.4379
16.4005	13.4379
16.4005	13.4379
16.4004	13.4379
0.753322	-15.7234
2.71454	-16.0177
6.48242	-5.79908
7.03715	-6.62319
6.71278	-2.52044
7.14261	-1.87864
8.01756	-0.0454971
9.99798	0.0169873
13.4817	4.92949
13.4817	4.92943
15.1465	8.91814
15.1466	8.91811
16.6853	13.6112
16.6852	13.6112
9.13968	-1.76622
9.6088	-2.90543
11.9798	-0.28312
11.9798	-0.283217
13.4817	4.92934
13.4817	4.92943
17.8295	12.0444
17.8296	12.0444
4.72821	-15.8571
4.72828	-15.8572
4.72821	-15.8571
6.05761	-14.4636
15.2788	4.04158
15.2789	4.04163
15.2788	4.04158
15.9097	2.59065
16.716	7.66056
16.7161	7.66054
19.1604	10.5662
19.1604	10.5662
-0.124774	-22.6874
-0.124774	-22.6874
-0.124774	-22.6874
-0.12477	-22.6874
0.0307228	-20.7052
0.0308197	-20.7052
6.29656	-12.4743
6.29658	-12.4742
6.29658	-12.4742
6.2966	-12.4742
6.2966	-12.4742
6.2966	-12.4742
11.0147	-6.57038
11.0147	-6.57043
13.1009	-1.96758
13.1009	-1.96758
17.283	3.93621
17.2829	3.93629
17.283	3.93621
18.5881	2.43618
17.2829	3.93629
17.3072	5.73655
16.7161	7.66054
16.7161	7.6606
16.7161	7.6606
16.716	7.66065
3.64964	-18.9312
5.29466	-19.1041
5.28696	-17.7738
6.70281	-16.4289
6.6764	-16.3662
6.70281	-16.4289
11.1173	-10.813
11.1173	-10.813
11.7691	-9.85823
12.2644	-11.1028
18.5881	2.43618
18.5881	2.43618
18.5881	2.43618
18.5881	2.43624
18.5881	2.43618
18.5881	2.43615
18.5881	2.43624
18.5881	2.43624
18.4332	8.6972
18.4332	8.69726
11.4272	-12.7479
11.4273	-12.7478
12.2644	-11.1028
12.2644	-11.1028
12.2644	-11.1028
13.4381	-12.7262
13.6939	-9.3204
14.9756	-9.21195
16.1161	-7.57001
16.116	-7.57006
16.1161	-7.57001
16.1161	-7.56993
15.725	-5.60692
15.725	-5.60692
15.725	-5.60692
16.1682	-4.57672
15.725	-5.60692
16.1161	-7.56993
16.1682	-4.57672
16.1682	-4.57672
16.1682	-4.57672
16.9217	-4.24735
17.6723	-0.701724
17.6724	-0.701641
17.6724	-0.701641
18.6613	-2.02855
13.1864	-13.3464
13.4381	-12.7262
14.9756	-9.21195
14.9756	-9.21195
20.3475	-1.1637
20.3476	-1.16378
20.3475	-1.16371
20.3476	-1.16378
21.7521	4.43735
21.7521	4.4373
10.5885	-17.4722
10.5886	-17.4722
13.795	-16.1984
13.795	-16.1984
14.8082	-14.4779
15.4534	-13.0139
16.9679	-9.38834
16.9679	-9.38825
20.2974	-3.15377
20.2973	-3.15374
23.6246	0.901086
23.6246	0.901086
23.6246	0.901086
23.6246	0.901146
12.3351	-18.4385
12.3351	-18.4385
17.4164	-12.66
17.4164	-12.66
18.7326	-10.3146
18.7326	-10.3146
19.7732	-6.9347
19.7731	-6.93467
19.7732	-6.9347
21.6902	-7.38691
21.8695	-2.49444
21.8695	-2.49436
21.8695	-2.49444
22.3819	-4.39962
21.8695	-2.49436
21.8695	-2.49441
12.571	-17.1003
13.7491	-17.248
13.7491	-17.248
13.7492	-17.248
17.7239	-16.7527
17.7665	-16.3139
17.7239	-16.7527
17.724	-16.7528
21.2598	-13.8801
21.2599	-13.8801
20.7212	-10.3137
21.561	-10.4493
22.3819	-4.39962
22.382	-4.39971
19.5855	-14.9621
19.5855	-14.9621
20.3418	-12.0338
20.3418	-12.0338
20.3418	-12.0338
20.3418	-12.0337
21.561	-10.4493
21.561	-10.4493
23.1022	-6.97139
23.1021	-6.97131
23.1021	-6.97131
23.1021	-6.97131
23.1021	-6.97131
22.9263	-6.34326
22.9263	-6.34326
22.9263	-6.34326
22.9263	-6.34326
22.9263	-6.3432
21.3228	-17.8697
21.3228	-17.8697
20.6878	-11.941
20.6878	-11.941
25.2657	-9.99857
25.2657	-9.99865
