-18.4409	7.21938
-17.6357	7.81497
-16.8303	8.41047
-18.4409	7.21938
-18.9316	6.34467
-19.0955	5.35583
-18.4409	7.21938
-17.6356	7.81498
-16.8303	8.4105
-17.1728	11.9317
-18.1559	11.7487
-17.1728	11.9317
-16.3643	13.7394
-16.9019	12.895
-17.1728	11.9317
-16.3643	13.7394
-17.3555	13.6069
-16.3643	13.7394
-18.5017	-2.48921
-18.2064	-1.53346
-18.0406	-0.547034
-18.5017	-2.48921
-17.5432	-2.20634
-16.5846	-1.92365
-18.0406	-0.547034
-18.1541	0.448028
-18.3953	1.42012
-18.0406	-0.547034
-17.3126	-1.23536
-16.5846	-1.92365
-18.3953	1.42012
-18.6696	2.38505
-18.9114	3.35864
-18.3953	1.42012
-17.4292	1.15905
-16.4339	1.25833
-18.9114	3.35864
-19.0264	4.35512
-19.0955	5.35583
-18.9114	3.35864
-18.1508	4.00652
-17.2992	4.52876
-19.0955	5.35583
-18.2571	4.81345
-17.2992	4.52876
-19.0955	5.35583
-18.3226	5.98534
-17.4882	6.53054
-16.8303	8.4105
-17.1445	9.35985
-16.8302	8.4105
-16.8303	8.4105
-17.1593	7.47055
-17.4882	6.53054
-17.1728	11.9317
-16.7617	11.0195
-16.0963	10.2718
-17.1728	11.9317
-16.1926	12.1143
-15.2045	12.2473
-16.3643	13.7394
-15.3716	13.8723
-14.3767	13.9875
-15.5023	15.6403
-14.9421	14.8121
-14.3767	13.9875
-15.5023	15.6403
-14.5041	15.702
-13.5082	15.7934
-14.6292	17.4497
-14.0688	16.6215
-13.5082	15.7934
-18.5718	-2.36006
-19.3698	-2.9628
-18.5718	-2.36011
-18.5718	-2.36006
-19.1159	-1.5139
-19.3946	-0.547914
-20.3369	1.20255
-19.3372	1.17983
-18.3375	1.15694
-16.5846	-1.92365
-15.8141	-1.28677
-15.3705	-0.391626
-15.3705	-0.391626
-15.7413	0.536728
-16.4339	1.25833
-15.3705	-0.391626
-14.6918	0.344029
-14.4419	1.31222
-16.4339	1.25833
-15.4326	1.27627
-14.4313	1.29412
-16.4339	1.25833
-15.8614	2.07421
-15.9327	3.0694
-17.2992	4.52876
-17.436	5.52568
-17.4882	6.53054
-17.2992	4.52876
-16.5576	3.85385
-15.9327	3.0694
-17.2992	4.52876
-16.338	4.79996
-15.3455	4.91247
-17.4882	6.53054
-17.2335	7.49646
-16.8302	8.41045
-17.4882	6.53054
-16.5963	6.96783
-15.6076	6.87074
-16.8302	8.41045
-16.4562	9.33832
-16.0963	10.2718
-16.8302	8.41045
-16.112	7.72551
-15.6076	6.87074
-16.8302	8.41045
-15.843	8.559
-14.8559	8.70881
-16.0963	10.2718
-15.4222	9.53298
-14.8559	8.70881
-16.0963	10.2718
-15.1064	10.4208
-14.1164	10.5698
-15.2045	12.2473
-14.6775	11.3975
-14.1164	10.5698
-15.2045	12.2473
-14.2098	12.3181
-13.2134	12.3573
-14.3767	13.9875
-13.9425	14.8904
-13.5082	15.7934
-14.3767	13.9875
-13.8003	13.1686
-13.2134	12.3573
-14.3767	13.9875
-13.3796	14.0598
-12.3833	14.143
-13.5082	15.7934
-12.948	14.9667
-12.3833	14.143
-13.5082	15.7934
-12.518	15.9449
-11.5263	16.0865
-12.5718	17.6338
-12.1704	18.5498
-11.769	19.4658
-12.5718	17.6338
-11.5765	17.73
-10.5844	17.8547
-11.769	19.4658
-11.1654	18.6686
-10.5844	17.8547
-15.9751	-5.12891
-16.8279	-4.60662
-17.6807	-4.08438
-19.3946	-0.547914
-18.866	0.30452
-18.3375	1.15694
-19.3946	-0.547914
-18.9833	-1.45409
-18.5717	-2.36017
-19.3946	-0.547914
-18.4417	-0.259099
-17.5312	-0.666914
-18.3375	1.15694
-17.9524	0.23704
-17.5312	-0.666914
-18.3375	1.15694
-17.3349	1.13351
-16.3338	1.07527
-14.4419	1.31222
-15.4272	1.50786
-16.3338	1.07527
-14.4419	1.31222
-13.4353	1.32098
-12.4286	1.32974
-14.4313	1.29412
-13.4299	1.31195
-12.4286	1.32974
-14.4313	1.29412
-13.946	2.16851
-13.4607	3.04285
-15.9327	3.0694
-15.4164	3.92014
-15.3455	4.91247
-15.3455	4.91247
-15.5739	5.87871
-15.6076	6.87074
-15.3455	4.91247
-14.8886	4.0255
-14.2376	3.26958
-15.6076	6.87074
-15.3161	7.82418
-14.8559	8.70881
-15.6076	6.87074
-15.113	6.00375
-14.4482	5.25937
-15.6076	6.87074
-14.6196	6.80149
-13.7219	7.22082
-14.8559	8.70881
-14.4822	9.63774
-14.1164	10.5698
-14.8559	8.70881
-14.553	7.76309
-13.7219	7.22082
-14.8559	8.70881
-13.8591	8.86241
-12.8617	9.0123
-14.1164	10.5698
-13.6795	11.4709
-13.2134	12.3573
-14.1164	10.5698
-13.4903	9.79011
-12.8617	9.0123
-13.2134	12.3573
-12.6126	11.5577
-12.0048	10.7634
-13.2134	12.3573
-12.2166	12.4185
-11.2227	12.5164
-12.3833	14.143
-11.8112	13.3238
-11.2227	12.5164
-12.3833	14.143
-11.3945	14.2897
-10.4046	14.4282
-11.5263	16.0865
-11.0554	16.9706
-10.5844	17.8547
-11.5263	16.0865
-10.9673	15.2561
-10.4046	14.4282
-11.5263	16.0865
-10.5276	16.1437
-9.5274	16.1602
-10.5844	17.8547
-10.0504	17.0109
-9.5274	16.1602
-10.5844	17.8547
-9.59924	18.0363
-8.61855	18.2406
-6.76462	18.8497
-6.96848	19.8287
-6.7646	18.8496
-6.76462	18.8497
-7.76024	18.7529
-8.61855	18.2406
-6.7646	18.8496
-6.4853	17.8877
-6.20603	16.9257
-19.4101	-5.08892
-18.5455	-4.5866
-17.6808	-4.08429
-15.7502	-4.59879
-16.7382	-4.42669
-17.6807	-4.08438
-15.7502	-4.59879
-16.7155	-4.34156
-17.6808	-4.08429
-15.7502	-4.59879
-15.7526	-3.59836
-16.2613	-2.73816
-17.6807	-4.08438
-18.3445	-3.33501
-18.5717	-2.36017
-17.6807	-4.08438
-16.8402	-3.54898
-16.2613	-2.73816
-17.6807	-4.08438
-18.5336	-3.56232
-17.6807	-4.08432
-18.5717	-2.36017
-18.159	-1.44762
-17.5312	-0.666914
-18.5717	-2.36017
-17.5727	-2.3919
-16.5736	-2.42358
-17.5312	-0.666914
-17.0631	-1.55105
-16.5736	-2.42358
-17.5312	-0.666914
-16.5385	-0.75462
-15.5426	-0.715574
-16.3338	1.07527
-16.1311	0.0950928
-15.5426	-0.715574
-16.3338	1.07527
-15.3496	0.924282
-14.3553	0.870258
-12.4286	1.32974
-12.9447	2.18628
-13.4607	3.04285
-14.2376	3.26958
-14.3429	4.26447
-14.4482	5.25937
-14.2376	3.26958
-13.375	2.76758
-12.4222	2.46996
-14.2376	3.26958
-13.4337	3.86373
-12.6297	4.45779
-14.4482	5.25937
-13.5756	4.77564
-12.6297	4.45779
-13.7219	7.22082
-13.292	8.11663
-12.8617	9.0123
-13.7219	7.22082
-12.7846	6.88167
-11.8278	6.60163
-13.7219	7.22082
-12.7347	7.3624
-11.7375	7.34602
-12.8617	9.0123
-12.2902	8.1855
-11.7375	7.34602
-12.8617	9.0123
-11.8788	9.14229
-10.8873	9.14259
-12.0048	10.7634
-11.0071	10.8325
-10.0114	10.9265
-11.2227	12.5164
-10.6117	11.7255
-10.0114	10.9265
-11.2227	12.5164
-10.2336	12.6531
-9.2456	12.797
-10.4046	14.4282
-9.83369	13.6065
-9.2456	12.797
-10.4046	14.4282
-9.40662	14.4876
-8.407	14.5062
-9.5274	16.1602
-8.9754	15.3277
-8.407	14.5062
-8.61855	18.2406
-8.64062	17.243
-8.11397	16.3942
-6.20603	16.9257
-5.34553	17.4327
-4.485	17.9396
-5.92285	19.3316
-5.00602	19.7309
-4.08918	20.1302
-5.92285	19.3316
-5.20391	18.6356
-4.485	17.9396
-5.92285	19.3316
-5.0344	19.7902
-4.08641	20.1075
-4.08918	20.1302
-3.09054	20.078
-2.09191	20.0258
-16.2613	-2.73816
-17.1157	-3.25875
-17.6807	-4.0843
-16.2613	-2.73816
-17.1186	-3.25494
-17.6806	-4.0843
-17.6807	-4.08432
-17.1206	-3.25833
-16.5736	-2.42358
-17.6807	-4.08432
-16.831	-4.60426
-15.9813	-5.12405
-16.5736	-2.42358
-16.0466	-1.5765
-15.5426	-0.715574
-15.5426	-0.715574
-15.0502	0.153272
-14.3553	0.870258
-15.5426	-0.715574
-14.9558	-1.52535
-14.3694	-2.33534
-15.5426	-0.715574
-14.5535	-0.859102
-13.5595	-0.962155
-14.3553	0.870258
-13.4218	1.22507
-12.4285	1.32974
-14.3553	0.870258
-13.9574	-0.0459678
-13.5595	-0.962155
-14.3553	0.870258
-13.3681	1.00012
-12.4285	1.32972
-12.4285	1.32974
-11.4654	1.60191
-10.51	1.90036
-12.4222	2.46996
-12.526	3.46387
-12.6297	4.45779
-12.4222	2.46996
-11.4671	2.18181
-10.51	1.90036
-12.4222	2.46996
-11.6544	3.11286
-10.807	3.64624
-12.6297	4.45779
-11.7086	4.07395
-10.807	3.64624
-11.8278	6.60163
-10.9257	6.17751
-10.1553	5.54501
-11.7375	7.34602
-11.3169	8.24644
-10.8873	9.14259
-11.7375	7.34602
-10.7368	7.41181
-9.7386	7.50766
-10.8873	9.14259
-10.4541	10.0369
-10.0114	10.9265
-10.8873	9.14259
-10.3443	8.30309
-9.7386	7.50766
-10.8873	9.14259
-9.88442	9.18266
-8.88388	9.26184
-10.0114	10.9265
-9.45049	10.0923
-8.88388	9.26184
-10.0114	10.9265
-9.02755	11.0703
-8.04348	11.2124
-9.2456	12.797
-8.56722	13.5247
-8.407	14.5062
-9.2456	12.797
-8.63334	12.0132
-8.04348	11.2124
-9.2456	12.797
-8.24869	12.9143
-7.25381	13.0477
-8.407	14.5062
-8.53659	15.4936
-8.11397	16.3942
-8.11397	16.3942
-7.19331	16.7787
-6.20598	16.9257
-6.20598	16.9257
-5.31077	17.3736
-4.485	17.9396
-6.20598	16.9257
-6.49534	17.8828
-6.206	16.9256
-6.20598	16.9257
-5.2179	16.7681
-4.22509	16.6439
-4.08641	20.1075
-3.62406	19.2222
-3.16175	18.3369
-4.08641	20.1075
-3.08657	20.1304
-2.09187	20.0258
-20.4475	-8.78777
-19.8691	-7.97151
-19.4778	-7.05104
-20.4475	-8.78777
-20.5286	-9.78448
-20.4476	-8.78776
-20.4475	-8.78777
-21.2768	-8.22889
-20.4476	-8.78775
-19.4778	-7.05104
-19.5341	-6.05108
-19.4289	-5.05546
-19.4778	-7.05104
-19.7272	-8.01945
-19.4777	-7.05107
-19.4289	-5.05546
-18.5537	-4.57185
-17.6807	-4.0843
-19.4289	-5.05546
-19.4533	-6.05326
-19.4777	-7.05107
-19.4289	-5.05546
-18.5821	-5.5786
-17.7252	-6.08497
-17.6807	-4.0843
-17.5958	-3.08791
-17.6806	-4.0843
-17.6807	-4.0843
-17.7834	-5.08277
-17.7252	-6.08497
-17.6806	-4.0843
-16.8993	-4.71549
-15.9813	-5.12405
-17.6806	-4.0843
-16.7535	-4.46042
-15.9868	-5.10253
-15.9813	-5.12405
-15.1315	-4.59352
-14.2816	-4.063
-14.3694	-2.33534
-15.3585	-2.48238
-16.3477	-2.62942
-13.5595	-0.962155
-12.5729	-0.80571
-11.6205	-0.504055
-12.4285	1.32972
-11.4692	1.61505
-10.51	1.90036
-12.4285	1.32972
-11.9982	0.424433
-11.6205	-0.504055
-10.51	1.90036
-9.58032	2.2544
-8.68592	2.69002
-10.807	3.64624
-10.4812	4.59563
-10.1553	5.54501
-10.807	3.64624
-9.83805	3.88245
-8.85208	4.03285
-10.1553	5.54501
-9.47436	4.81423
-8.85208	4.03285
-10.1553	5.54501
-9.22221	5.90491
-8.22279	5.92675
-10.1553	5.54508
-9.95546	6.52818
-9.7386	7.50766
-10.1553	5.54508
-9.22194	5.90193
-8.25728	6.16253
-9.7386	7.50766
-9.4769	8.46545
-8.88388	9.26184
-9.7386	7.50766
-9.02017	6.81063
-8.25728	6.16253
-8.88388	9.26184
-8.25809	8.47896
-7.60307	7.72035
-8.88388	9.26184
-7.88879	9.4168
-6.89693	9.59129
-8.04348	11.2124
-7.62641	12.1205
-7.25381	13.0477
-8.04348	11.2124
-7.49698	10.3829
-6.89693	9.59129
-8.04348	11.2124
-7.05237	11.3038
-6.06446	11.4248
-7.25381	13.0477
-6.96261	14.009
-6.70196	14.979
-7.25381	13.0477
-6.65913	12.2362
-6.06446	11.4248
-7.25381	13.0477
-6.27655	13.2553
-5.29714	13.4524
-6.70196	14.979
-6.45223	15.9518
-6.206	16.9256
-4.22509	16.6439
-3.69287	17.4901
-3.16175	18.3369
-4.22509	16.6439
-3.50752	15.9474
-2.78996	15.2509
-4.22509	16.6439
-3.22572	16.5917
-2.22517	16.5724
-3.16175	18.3369
-2.6327	19.1851
-2.09187	20.0258
-3.16175	18.3369
-2.69342	17.4546
-2.22512	16.5724
-2.09187	20.0258
-1.52712	20.8499
-0.994354	21.6949
-2.09187	20.0258
-1.09396	19.9579
-0.0949994	19.9077
-0.994354	21.6949
-0.544936	22.5875
-0.142924	23.5024
-0.994354	21.6949
-0.55679	20.7952
-0.0949994	19.9077
-0.142924	23.5024
0.235417	22.5764
0.754807	21.7216
-20.4476	-8.78776
-20.8446	-9.70559
-20.4476	-8.78775
-20.4476	-8.78775
-20.0507	-7.87017
-19.4777	-7.05107
-20.4476	-8.78775
-19.6186	-9.34669
-18.7895	-9.90565
-19.4777	-7.05107
-18.6311	-6.51435
-17.7252	-6.08497
-17.7252	-6.08497
-16.852	-5.60079
-15.9868	-5.10253
-17.7252	-6.08497
-16.8554	-6.58035
-15.982	-7.06952
-15.9868	-5.10253
-15.1015	-4.63627
-14.2816	-4.063
-15.9868	-5.10253
-15.8071	-6.08537
-15.982	-7.06952
-14.2816	-4.063
-13.6734	-3.26763
-13.173	-2.40025
-14.2816	-4.063
-15.2797	-4.00098
-14.2816	-4.06302
-13.173	-2.40025
-13.7273	-3.23163
-14.2816	-4.06302
-13.173	-2.40025
-12.7024	-3.28171
-12.2806	-4.18749
-11.6205	-0.504055
-11.3862	-1.47803
-11.2118	-2.46449
-10.5101	1.90035
-9.59805	2.29526
-8.68592	2.69002
-10.5101	1.90035
-9.70997	1.30269
-8.9098	0.705072
-8.68592	2.69002
-8.75539	1.69274
-8.9098	0.705072
-8.85208	4.03285
-8.53747	4.97981
-8.22279	5.92675
-8.85208	4.03285
-7.91624	4.37931
-6.91927	4.4074
-8.22279	5.92675
-7.57103	5.16708
-6.91927	4.4074
-8.22279	5.92675
-7.46543	5.27565
-7.01588	4.38319
-8.25728	6.16253
-7.26037	6.24231
-6.26029	6.23186
-7.60307	7.72035
-7.26111	8.66002
-6.89693	9.59129
-7.60307	7.72035
-6.93119	6.97654
-6.26029	6.23186
-6.89693	9.59129
-6.48645	10.5106
-6.06446	11.4248
-6.89693	9.59129
-6.23678	8.84064
-5.56191	8.10317
-6.06446	11.4248
-5.08208	11.6216
-4.10614	11.8482
-5.29714	13.4524
-4.7279	12.6308
-4.10614	11.8482
-5.29714	13.4524
-4.30306	13.5562
-3.30376	13.5749
-4.76562	14.9399
-3.77779	15.0954
-2.78996	15.2509
-4.76562	14.9399
-4.03469	14.2574
-3.30376	13.5749
-2.22517	16.5724
-1.51053	15.8746
-0.79591	15.1768
-2.22512	16.5724
-1.26158	16.844
-0.298029	17.1156
-0.0949994	19.9077
0.329915	20.8147
0.754807	21.7216
-0.0949994	19.9077
0.417499	19.0474
1.20927	18.4352
0.754807	21.7216
1.52363	21.083
2.39134	20.5867
0.754807	21.7216
1.65806	22.1513
2.56131	22.581
0.988242	23.816
1.77479	23.1985
2.56131	22.581
0.988242	23.816
1.91595	24.1894
2.84365	24.5627
-17.1599	-11.9372
-18.1355	-12.1569
-17.1599	-11.9372
-17.1599	-11.9372
-16.5724	-12.7514
-15.985	-13.5657
-17.1599	-11.9372
-18.1644	-11.9725
-19.1088	-12.3145
-17.1599	-11.9372
-18.1343	-12.1259
-19.1088	-12.3145
-18.7895	-9.90565
-18.0956	-9.18559
-17.381	-8.48613
-17.381	-8.48613
-16.6279	-7.83066
-15.982	-7.06952
-17.381	-8.48613
-17.0268	-9.41883
-16.3297	-10.1319
-17.381	-8.48613
-16.3794	-8.43536
-15.3778	-8.38458
-15.982	-7.06952
-15.588	-6.1524
-15.3751	-5.17707
-15.3751	-5.17707
-15.1629	-6.15446
-14.9598	-7.13381
-14.2816	-4.06302
-13.2811	-4.12528
-12.2805	-4.18754
-12.2806	-4.18749
-11.683	-3.38568
-12.2805	-4.18754
-12.2806	-4.18749
-12.7924	-3.322
-12.9997	-2.33869
-11.2118	-2.46449
-11.421	-1.48727
-11.6303	-0.510054
-11.2118	-2.46449
-10.3339	-1.98569
-11.2118	-2.46454
-11.6303	-0.510054
-11.421	-1.4873
-11.2118	-2.46454
-11.6303	-0.510054
-10.7212	-0.928502
-9.73599	-1.10245
-8.9098	0.705072
-9.69616	1.32487
-10.4825	1.94466
-8.9098	0.705072
-9.22406	-0.243883
-9.73599	-1.10245
-10.4825	1.94466
-9.50782	1.7263
-8.57298	1.37463
-6.91927	4.4074
-6.13779	3.78654
-5.68109	2.89844
-7.01588	4.38319
-6.63238	5.30519
-6.26029	6.23186
-7.01588	4.38319
-6.34848	3.64082
-5.68109	2.89844
-6.26029	6.23186
-5.90703	7.166
-5.56191	8.10317
-6.26029	6.23186
-5.6085	5.46979
-4.96398	4.70157
-5.56191	8.10317
-5.21141	9.03842
-4.85771	9.97246
-5.56191	8.10317
-4.91326	7.34272
-4.27888	6.57032
-5.56191	8.10317
-4.57605	8.27204
-3.59019	8.44087
-4.85771	9.97246
-4.12686	9.2868
-3.59019	8.44087
-4.85771	9.97246
-3.87263	10.1283
-2.88754	10.2841
-4.10614	11.8482
-3.39208	11.1475
-2.88754	10.2841
-3.30376	13.5749
-2.3053	13.5297
-1.30898	13.4503
-1.2936	13.2397
-1.04474	14.2083
-0.79591	15.1768
-0.79591	15.1768
-0.546948	16.1462
-0.298029	17.1156
-0.79591	15.1768
-0.135651	15.9269
0.666099	16.5232
-0.298029	17.1156
0.455625	17.7754
1.20927	18.4352
1.20927	18.4352
2.18007	18.6751
1.20927	18.4352
2.39134	20.5867
2.46752	21.5846
2.56131	22.581
2.56131	22.581
2.69386	23.573
2.84365	24.5627
2.84365	24.5627
3.34671	23.6992
3.7068	22.7671
-15.985	-13.5657
-15.4021	-14.3735
-14.8191	-15.1813
-15.985	-13.5657
-15.402	-14.3735
-14.8191	-15.1813
-19.1088	-12.3145
-18.1088	-12.2573
-17.1599	-11.9371
-19.1088	-12.3145
-18.7456	-13.243
-17.9053	-13.7824
-17.1599	-11.9371
-16.6325	-11.0864
-16.3297	-10.1319
-17.1599	-11.9371
-17.6445	-12.8147
-17.9053	-13.7824
-16.3297	-10.1319
-15.9582	-9.20118
-15.3778	-8.38458
-16.3297	-10.1319
-15.3615	-10.368
-14.3932	-10.1299
-15.3778	-8.38458
-14.4615	-7.99459
-14.9598	-7.13381
-15.3778	-8.38458
-14.8855	-9.25721
-14.3933	-10.1298
-14.9598	-7.13381
-15.2202	-6.16667
-15.3752	-5.17711
-14.9598	-7.13381
-14.7755	-8.11789
-14.3394	-9.01876
-14.9598	-7.13381
-14.253	-6.41999
-13.4727	-5.78729
-15.3752	-5.17711
-14.4239	-5.48218
-13.4727	-5.78724
-12.2805	-4.18754
-12.8766	-4.98739
-13.4727	-5.78724
-12.2805	-4.18754
-11.2824	-4.24961
-12.2805	-4.18761
-12.9997	-2.33869
-12.5812	-3.24024
-12.2805	-4.18761
-12.9997	-2.33869
-12.0755	-1.96163
-11.2118	-2.4646
-11.2118	-2.46454
-10.4739	-1.78349
-9.73599	-1.10245
-11.2118	-2.46454
-12.0897	-2.94334
-11.2118	-2.46455
-9.73599	-1.10245
-10.448	-1.81154
-11.2118	-2.46455
-9.73599	-1.10245
-8.80863	-0.705296
-7.95906	-0.161047
-8.57298	1.37463
-8.46481	2.36577
-7.67982	2.97867
-8.57298	1.37463
-7.74901	0.812994
-7.95906	-0.161047
-8.57298	1.37463
-7.57174	1.31591
-6.5688	1.31397
-7.67982	2.97867
-6.68172	2.90467
-5.68109	2.89844
-7.67982	2.97867
-7.12432	2.14632
-6.5688	1.31397
-7.67982	2.97867
-6.80738	3.4608
-5.84896	3.19055
-5.68109	2.89844
-5.10552	3.71319
-4.96398	4.70157
-4.96398	4.70157
-4.67104	5.65411
-4.27888	6.57032
-4.27888	6.57032
-3.92013	7.50029
-3.59019	8.44087
-3.59019	8.44087
-3.70209	7.44041
-4.19108	6.56064
-2.88754	10.2841
-3.08381	9.30364
-3.59014	8.44091
-1.30898	13.4503
-0.406434	13.8773
0.312636	14.5696
-1.30898	13.4503
-0.336977	13.2156
0.429563	12.5747
0.312636	14.5696
0.595357	15.5271
0.666099	16.5232
0.666099	16.5232
0.883169	17.4947
1.20927	18.4352
0.666099	16.5232
0.415559	15.5597
0.312676	14.5695
0.666099	16.5232
1.6343	16.7752
0.66562	16.5288
1.20927	18.4352
1.48485	19.3939
1.72228	20.3627
1.20927	18.4352
0.7932	17.5234
0.66562	16.5288
1.72228	20.3627
1.05236	21.1051
1.72226	20.3626
3.70682	22.7671
2.85034	23.2833
3.7068	22.7671
3.7068	22.7671
4.5633	22.2509
5.41981	21.7348
3.7068	22.7671
3.78381	21.7696
3.6645	20.7763
3.7068	22.7671
3.7624	21.7699
3.66453	20.7761
5.41981	21.7348
4.54217	21.2555
3.66453	20.7761
-14.8191	-15.1813
-15.7933	-15.4069
-14.8191	-15.1813
-14.8191	-15.1813
-15.2184	-16.0969
-15.6177	-17.0125
-17.9053	-13.7824
-17.5057	-14.7026
-16.7533	-15.3662
-17.9053	-13.7824
-17.1889	-14.4721
-16.7533	-15.3663
-14.3933	-10.1298
-13.4253	-9.88872
-12.4572	-9.64761
-14.3394	-9.01876
-13.441	-9.46035
-12.4572	-9.64761
-14.3394	-9.01876
-13.5946	-8.35632
-12.8498	-7.69389
-13.4727	-5.78729
-13.1613	-6.74059
-12.8498	-7.69389
-13.4727	-5.78729
-12.529	-5.46491
-11.7916	-6.13572
-13.4727	-5.78724
-12.8599	-4.99982
-12.2805	-4.18761
-12.2805	-4.18761
-11.7416	-3.32894
-11.2118	-2.4646
-12.2805	-4.18761
-12.0325	-5.16076
-11.7915	-6.1357
-11.2118	-2.4646
-10.6893	-1.61192
-11.2118	-2.46455
-11.2118	-2.4646
-10.539	-3.19744
-9.59134	-3.49751
-11.2118	-2.46455
-10.3295	-1.98343
-9.44724	-1.50233
-7.95906	-0.161047
-7.24431	0.557986
-6.5688	1.31397
-7.95906	-0.161047
-8.64955	-0.891033
-9.44724	-1.50233
-7.95906	-0.161047
-7.21352	0.508219
-6.51294	1.22444
-6.5688	1.31397
-6.15151	2.23024
-5.84896	3.19055
-6.5688	1.31397
-5.56967	1.46995
-4.57538	1.65438
-5.84896	3.19055
-5.70546	4.18855
-5.80597	5.19147
-5.84896	3.19055
-5.21217	2.42246
-4.57538	1.65438
-5.84896	3.19055
-5.27167	2.37284
-4.57535	1.65445
-5.80597	5.19147
-6.68801	5.66567
-5.74992	5.325
-5.74992	5.325
-4.87683	5.82442
-4.19108	6.56064
-5.74992	5.325
-5.42565	4.38362
-4.79758	3.61131
-4.19108	6.56064
-3.75979	7.45888
-3.59014	8.44091
-4.19108	6.56064
-5.18736	6.47475
-4.19102	6.56061
-4.19108	6.56064
-3.39532	7.16613
-2.62779	7.80702
-0.0361528	10.6308
0.196704	11.6028
0.429563	12.5747
-0.0361528	10.6308
-0.51457	9.75075
-0.99299	8.87066
-0.0361528	10.6308
-0.991013	10.3338
-0.0361281	10.6309
0.429563	12.5747
0.317854	11.574
-0.0361281	10.6309
0.429513	12.5747
0.332219	13.5698
0.312676	14.5695
0.429513	12.5747
-0.243268	11.835
0.42966	12.5748
0.312676	14.5695
0.446308	15.5569
0.66562	16.5288
0.312676	14.5695
0.337592	13.5702
0.42966	12.5748
0.312676	14.5695
-0.476117	15.1842
0.312658	14.5695
0.66562	16.5288
0.8274	17.5181
0.996789	18.5062
0.66562	16.5288
-0.325258	16.6631
0.66591	16.5299
0.996789	18.5062
1.24514	19.4792
1.72226	20.3626
0.996789	18.5062
0.831353	17.518
0.66591	16.5299
1.72226	20.3626
2.66521	20.7009
3.6645	20.7763
1.72226	20.3626
2.38966	19.623
3.05706	18.8833
3.6645	20.7763
4.66168	20.8515
3.66453	20.7761
3.6645	20.7763
3.42154	19.8103
3.05706	18.8833
3.66453	20.7761
3.31769	19.8382
3.66459	20.7761
-14.8191	-15.1813
-14.4068	-16.0975
-13.9944	-17.0137
-15.6177	-17.0125
-16.1855	-16.1894
-16.7533	-15.3662
-15.6177	-17.0125
-15.2071	-16.0995
-14.7965	-15.1865
-16.7533	-15.3662
-17.3211	-14.543
-16.7533	-15.3663
-16.7533	-15.3662
-15.7587	-15.4551
-14.7965	-15.1865
-16.7533	-15.3663
-16.1856	-16.1895
-15.6179	-17.0128
-16.7533	-15.3663
-16.4953	-16.3318
-16.215	-17.291
-12.4572	-9.64761
-12.7405	-8.68816
-12.8498	-7.69389
-12.4572	-9.64761
-11.4748	-9.8344
-10.4924	-10.0211
-12.8498	-7.69389
-12.5867	-6.73446
-11.7916	-6.13572
-11.7916	-6.13572
-12.0269	-7.1173
-12.2825	-8.09378
-11.7916	-6.13572
-11.5166	-7.09093
-10.5248	-7.13071
-11.7915	-6.1357
-11.2649	-5.28494
-10.7382	-4.4342
-11.7915	-6.1357
-11.5191	-7.09256
-10.5248	-7.13071
-10.7382	-4.4342
-9.99421	-5.10226
-9.35674	-5.87249
-9.59134	-3.49751
-9.5193	-2.49992
-9.44724	-1.50233
-9.59134	-3.49751
-8.69259	-3.9309
-7.88288	-4.51379
-9.59134	-3.49751
-8.62938	-3.23914
-7.78772	-2.70561
-6.51294	1.22444
-5.57315	1.57086
-4.57538	1.65438
-4.57538	1.65438
-3.75055	1.08901
-4.57535	1.65445
-4.57538	1.65438
-3.57929	1.8228
-2.58262	1.98781
-4.57535	1.65445
-4.8567	2.61333
-4.79758	3.61131
-4.57535	1.65445
-3.70408	2.1422
-2.99747	2.84882
-4.79758	3.61131
-3.97373	3.05031
-2.99747	2.84882
-4.79758	3.61131
-4.03577	4.2627
-3.2164	4.83995
-4.19102	6.56061
-3.44135	7.22392
-2.62779	7.80702
-4.19102	6.56061
-3.56157	5.7811
-3.2164	4.83995
-4.19102	6.56061
-3.32196	7.06522
-2.37879	7.41157
-2.62779	7.80702
-1.70953	8.18415
-0.99299	8.87066
-2.62779	7.80702
-1.92289	8.51225
-0.992966	8.8706
-0.99299	8.87066
-0.456285	9.71909
-0.0361281	10.6309
-0.99299	8.87066
-1.47063	7.99208
-0.992966	8.8706
-0.99299	8.87066
-0.876118	9.8638
-0.992933	8.87065
-0.0361281	10.6309
0.234143	11.5939
0.429598	12.5748
-0.0361281	10.6309
-0.494297	9.73978
-0.992933	8.87065
-0.0361281	10.6309
0.919791	10.9283
1.87571	11.2257
0.429598	12.5748
1.23457	11.988
1.87571	11.2257
0.42966	12.5748
0.326017	13.5695
0.312658	14.5695
0.42966	12.5748
1.10055	13.3125
2.04502	13.6303
0.312658	14.5695
0.48073	15.5512
0.66591	16.5299
0.312658	14.5695
1.10072	13.9554
2.04508	13.6304
0.66591	16.5299
0.687556	17.5284
1.10732	18.4338
0.66591	16.5299
1.5381	16.0337
2.44153	15.5972
1.10732	18.4338
2.08184	18.66
3.05706	18.8833
1.10732	18.4338
1.99982	17.9911
2.8923	17.5484
3.05706	18.8833
3.49132	19.7876
3.66452	20.7762
3.66459	20.7761
3.29605	21.7057
2.92748	22.6352
3.66459	20.7761
4.6467	20.5859
5.62881	20.3957
3.66459	20.7761
4.23793	21.5959
4.90572	22.3408
2.92748	22.6352
3.91576	22.4824
4.90572	22.3408
-13.9944	-17.0137
-14.3955	-16.1001
-14.7965	-15.1865
-13.9944	-17.0137
-13.5752	-17.9243
-13.156	-18.8349
-16.215	-17.291
-15.8947	-18.2361
-15.1545	-18.9045
-16.215	-17.291
-15.2134	-17.3222
-14.2255	-17.1553
-12.9899	-9.98774
-13.3625	-10.9155
-13.6838	-11.8623
-12.9899	-9.98774
-13.7681	-9.35976
-12.9899	-9.98778
-12.2825	-8.09378
-11.4037	-7.61224
-10.5248	-7.13071
-12.2825	-8.09378
-12.6272	-9.04414
-12.9899	-9.98778
-10.5248	-7.13071
-9.52864	-7.20452
-8.69905	-7.75955
-9.35674	-5.87249
-8.61981	-5.19314
-7.88288	-4.51379
-9.35674	-5.87249
-8.96848	-6.79527
-8.69905	-7.75955
-9.35674	-5.87249
-8.37723	-6.0676
-7.39772	-6.2627
-7.88288	-4.51379
-7.24173	-5.27806
-7.39772	-6.2627
-7.78772	-2.70561
-7.10969	-3.43865
-6.43164	-4.17167
-7.78772	-2.70561
-6.84498	-2.38209
-5.85657	-2.25296
-4.84602	-0.583828
-4.8076	0.415993
-4.45413	1.35158
-4.84602	-0.583828
-5.53452	-1.30782
-5.85657	-2.25296
-4.45413	1.35158
-3.56879	1.81735
-2.58262	1.98781
-4.45413	1.35158
-4.80285	0.414601
-4.84598	-0.583878
-4.45413	1.35158
-3.70669	0.689568
-2.95926	0.0275546
-2.58262	1.98781
-2.77096	1.00768
-2.95926	0.0275546
-2.99747	2.84882
-3.10695	3.84438
-3.2164	4.83995
-2.99747	2.84882
-2.0016	2.79966
-2.58253	1.9878
-2.99747	2.84882
-2.03428	3.1055
-1.05366	3.28517
-3.2164	4.83995
-2.28253	5.20084
-1.28396	5.27168
-2.37879	7.41157
-1.68588	8.14109
-0.992966	8.8706
-2.37879	7.41157
-1.40916	7.16677
-0.508179	6.73213
-0.992966	8.8706
-0.304287	9.59571
-0.992933	8.87065
-0.992966	8.8706
-0.0171309	8.646
0.872613	8.18603
1.87571	11.2257
2.31831	10.3331
2.49705	9.35283
2.04497	13.6303
1.43159	14.4201
2.04502	13.6303
2.04497	13.6303
2.99238	13.3134
3.93979	12.9964
2.04502	13.6303
3.01325	13.376
3.93975	12.9964
2.04508	13.6304
2.23979	14.6145
2.44153	15.5972
2.04508	13.6304
2.99242	13.3134
3.93975	12.9964
2.04508	13.6304
3.01834	13.8859
3.94817	14.271
2.44153	15.5972
2.66268	16.5738
2.8923	17.5484
2.44153	15.5972
3.19486	14.9341
3.94817	14.271
2.44153	15.5972
3.42969	15.75
4.33492	16.1754
2.8923	17.5484
3.61681	16.8652
4.33492	16.1754
4.90572	22.3408
5.8993	22.222
6.89408	22.1137
-13.156	-18.8349
-13.0492	-19.8315
-12.9424	-20.828
-12.9424	-20.828
-13.058	-19.837
-13.1683	-18.8454
-15.1545	-18.9045
-14.5812	-18.0876
-14.2255	-17.1553
-15.1545	-18.9045
-14.1586	-18.9761
-13.1683	-18.8454
-15.1545	-18.9045
-14.8214	-17.9599
-14.2256	-17.1553
-14.2255	-17.1553
-14.2266	-16.1605
-15.0219	-15.5618
-14.2255	-17.1553
-15.1958	-16.9134
-14.2256	-17.1553
-14.2255	-17.1553
-13.4547	-16.5232
-13.0135	-15.6289
-15.0219	-15.5618
-14.0177	-15.5954
-13.0135	-15.6289
-15.0219	-15.5618
-14.511	-14.7091
-14	-13.8564
-13.6838	-11.8623
-13.3368	-10.925
-12.9899	-9.98778
-13.6838	-11.8623
-13.9051	-12.8494
-14	-13.8564
-13.6838	-11.8623
-12.9078	-12.4901
-12.1317	-13.118
-12.9899	-9.98778
-12.2117	-10.6158
-11.4335	-11.2438
-10.6896	-7.56552
-9.69433	-7.66253
-8.69905	-7.75955
-8.69905	-7.75955
-8.42988	-8.72264
-8.16067	-9.68572
-8.69905	-7.75955
-8.56871	-8.75101
-8.699	-7.75952
-7.39772	-6.2627
-8.13507	-6.93622
-8.699	-7.75952
-6.43164	-4.17167
-6.15091	-3.21027
-5.85657	-2.25296
-6.43164	-4.17167
-5.47772	-3.87646
-4.52379	-3.58124
-5.85657	-2.25296
-5.53094	-1.30936
-4.84598	-0.583878
-5.85657	-2.25296
-5.42333	-3.15031
-4.52379	-3.58124
-4.84598	-0.583878
-3.87131	-0.373873
-2.95926	0.0275546
-4.84598	-0.583878
-4.29877	-1.42095
-3.53673	-2.06908
-2.95926	0.0275546
-2.73293	1.00027
-2.58253	1.9878
-2.58253	1.9878
-1.80695	2.62342
-1.05366	3.28517
-2.58253	1.9878
-2.86834	1.03229
-2.91224	0.0357648
-1.05366	3.28517
-1.0695	4.28976
-1.28396	5.27168
-1.05366	3.28517
-1.20227	2.28345
-1.35086	1.28174
-1.05366	3.28517
-0.222027	3.85349
0.545806	4.50557
-1.28396	5.27168
-1.38362	6.26015
-0.508179	6.73213
-1.28396	5.27168
-0.310467	5.02795
0.545806	4.50557
-1.28396	5.27168
-0.360863	4.90824
0.545901	4.50559
-0.508179	6.73213
0.193487	7.44836
0.872613	8.18603
-0.508179	6.73213
0.449723	6.43937
1.44015	6.29003
0.872613	8.18603
1.69136	8.76036
2.49705	9.35283
0.872613	8.18603
1.05543	7.20778
1.44015	6.29003
0.872613	8.18603
1.74925	7.69627
2.69868	7.36987
2.49705	9.35283
3.12169	10.1329
3.54121	11.04
2.49705	9.35283
2.62091	8.36369
2.69868	7.36987
3.54121	11.04
3.78844	12.0084
3.93979	12.9964
3.93975	12.9964
4.9282	12.8574
5.9065	13.0555
3.94817	14.271
3.92115	15.2682
4.33492	16.1754
3.94817	14.271
4.90409	14.5986
5.86426	14.9135
4.33492	16.1754
5.18966	16.6915
6.16963	16.885
4.33492	16.1754
5.04641	15.48
5.86426	14.9135
6.16963	16.885
5.54552	17.6663
6.1696	16.8849
5.62886	20.3957
6.20292	19.5765
6.80907	18.7808
5.62886	20.3957
6.62847	20.4331
7.62838	20.405
6.89408	22.1137
6.83628	23.112
6.77847	24.1103
6.89408	22.1137
7.88914	22.0079
8.88309	21.8921
-14.3625	-21.3502
-13.4149	-21.0308
-12.4673	-20.7115
-13.156	-18.8349
-12.5368	-19.6205
-13.1683	-18.8454
-13.156	-18.8349
-12.8221	-19.777
-12.4673	-20.7115
-13.156	-18.8349
-12.1779	-19.0476
-11.1941	-19.2316
-13.1683	-18.8454
-13.8022	-18.066
-14.2256	-17.1553
-13.1683	-18.8454
-12.1739	-19.0007
-11.1941	-19.2316
-13.1683	-18.8454
-13.2712	-17.8521
-12.299	-17.6356
-14.2256	-17.1553
-13.7926	-16.2551
-13.0135	-15.6289
-14.2256	-17.1553
-13.2623	-17.3955
-12.299	-17.6356
-14.2256	-17.1553
-13.2416	-16.992
-12.4055	-17.5371
-13.0135	-15.6289
-12.5711	-14.7321
-13.0134	-15.6289
-14	-13.8564
-13.0659	-13.4872
-12.1317	-13.118
-14	-13.8564
-13.5506	-14.767
-13.0134	-15.6289
-12.1317	-13.118
-11.4311	-13.8309
-11.1765	-14.7966
-11.4335	-11.2438
-11.7826	-12.1809
-12.1317	-13.118
-8.16067	-9.68572
-8.42983	-8.72262
-8.699	-7.75952
-8.699	-7.75952
-7.77888	-8.1385
-6.86203	-8.52524
-8.699	-7.75952
-8.04021	-7.00811
-7.14881	-6.55506
-6.08222	-4.85627
-5.31224	-4.20746
-4.52379	-3.58124
-6.08222	-4.85627
-7.01662	-4.49999
-6.08228	-4.85632
-4.52379	-3.58124
-3.68252	-3.05182
-3.53673	-2.06908
-4.52379	-3.58124
-3.56849	-3.28559
-4.52381	-3.58118
-3.53673	-2.06908
-3.55566	-1.06926
-3.6571	-0.0743941
-3.53673	-2.06908
-4.50793	-1.83091
-3.53668	-2.06902
-3.6571	-0.0743941
-3.63825	-1.07422
-3.53668	-2.06902
-2.91224	0.0357648
-2.13156	0.658763
-1.35086	1.28174
-2.91224	0.0357648
-2.2013	0.744258
-1.35167	1.27807
-1.35086	1.28174
-1.49777	0.290694
-1.35167	1.27807
0.545806	4.50557
0.0606043	3.6312
0.545901	4.50559
0.545806	4.50557
0.546859	3.50857
0.176105	2.58209
0.545901	4.50559
1.03061	5.37899
1.44015	6.29003
0.545901	4.50559
1.53471	4.6228
1.8506	3.67888
0.545901	4.50559
1.5535	4.53411
2.55682	4.63192
1.44015	6.29003
1.71286	7.24547
2.69868	7.36987
1.44015	6.29003
1.96797	5.44044
2.55682	4.63192
1.44015	6.29003
2.43485	6.34377
3.42501	6.45317
2.69868	7.36987
3.66178	7.6544
4.54333	8.13515
2.69868	7.36987
3.6618	7.64727
4.54108	8.12886
4.54333	8.13515
5.08377	8.99513
5.55361	9.89571
4.54333	8.13515
4.09943	9.02864
4.54108	8.12886
3.93979	12.9963
4.92906	12.8401
5.9065	13.0555
3.93979	12.9963
4.356	12.0876
4.9986	11.3225
5.9065	13.0555
6.24188	13.9916
5.86426	14.9135
5.9065	13.0555
6.80504	13.5032
7.66162	14.0268
5.86426	14.9135
5.92127	15.914
6.1696	16.8849
5.86426	14.9135
6.75244	14.4489
7.66162	14.0268
6.1696	16.8849
6.47581	17.8374
6.80907	18.7808
6.1696	16.8849
6.79364	16.1037
7.4177	15.3224
6.80907	18.7808
7.47871	18.0379
8.15396	17.3001
7.62838	20.405
8.08596	21.2922
8.88309	21.8921
7.62838	20.405
8.40777	19.7831
9.09648	19.0621
7.62838	20.405
8.6195	20.2406
9.60277	20.0343
8.88309	21.8921
9.88529	21.8591
10.8539	21.5985
8.88309	21.8921
9.16784	20.934
9.60277	20.0343
8.88309	21.8921
9.87	21.7553
10.8539	21.5984
10.8539	21.5985
11.4786	22.3793
10.8539	21.5984
-12.4673	-20.7115
-11.6685	-20.1106
-11.1941	-19.2316
-12.4673	-20.7115
-12.0745	-21.6287
-11.6553	-22.5342
-11.1941	-19.2316
-11.5315	-18.2846
-12.299	-17.6356
-11.1941	-19.2316
-10.1969	-19.3517
-9.19748	-19.4511
-12.299	-17.6356
-13.0597	-18.289
-12.4055	-17.5371
-12.299	-17.6356
-11.4905	-18.2146
-10.8923	-19.0099
-12.4055	-17.5371
-12.7335	-16.5906
-13.0134	-15.6289
-12.4055	-17.5371
-11.7084	-18.2461
-11.8114	-17.2489
-13.0134	-15.6289
-12.0952	-15.2123
-11.1765	-14.7966
-13.0134	-15.6289
-12.4193	-16.444
-11.8114	-17.2489
-11.1765	-14.7966
-11.4284	-13.8295
-12.1317	-13.118
-11.1765	-14.7966
-11.8938	-15.4898
-10.8973	-15.5265
-11.1765	-14.7966
-10.3562	-14.2026
-9.53595	-13.6087
-8.13591	-10.0393
-7.38478	-9.37808
-6.86203	-8.52524
-8.13591	-10.0393
-8.84938	-10.7408
-9.31591	-11.6256
-6.86203	-8.52524
-6.9887	-7.53776
-7.14881	-6.55506
-6.86203	-8.52524
-7.40669	-9.36379
-8.04173	-10.1367
-6.86203	-8.52524
-7.84829	-8.69026
-6.86197	-8.52529
-7.14881	-6.55506
-6.68576	-5.66172
-6.08228	-4.85632
-7.14881	-6.55506
-6.28443	-6.064
-5.71932	-6.88345
-6.08228	-4.85632
-5.14873	-5.21236
-4.20784	-5.54851
-4.52381	-3.58118
-4.36583	-4.56484
-4.20784	-5.54851
-3.53668	-2.06902
-2.84576	-1.33652
-2.2065	-0.55856
-3.53668	-2.06902
-3.27181	-3.03404
-2.93465	-3.97627
-3.53668	-2.06902
-2.56669	-2.30682
-1.58226	-2.47494
-2.2065	-0.55856
-1.78772	0.363787
-1.35167	1.27807
-2.2065	-0.55856
-1.89438	-1.51675
-1.58226	-2.47494
-2.2065	-0.55856
-1.28826	-0.950328
-0.312982	-1.16309
-1.35167	1.27807
-0.62144	1.96946
0.176105	2.58209
-1.35167	1.27807
-0.362593	1.13774
0.509913	0.650258
0.176105	2.58209
0.970035	3.19676
1.8506	3.67888
0.176105	2.58209
0.163832	1.58532
0.509913	0.650258
1.8506	3.67888
2.84585	3.6788
2.55682	4.63192
1.8506	3.67888
2.05841	2.702
2.19997	1.71333
1.8506	3.67888
2.78717	3.33964
3.72375	3.00039
2.55682	4.63192
2.92729	5.57279
3.42501	6.45317
2.55682	4.63192
3.14136	3.81692
3.72375	3.00039
2.55682	4.63192
3.55848	4.57748
4.53081	4.82148
3.42501	6.45317
3.97582	7.29583
4.54108	8.12886
3.42501	6.45317
4.08675	5.71104
4.53081	4.82148
3.42501	6.45317
4.42555	6.41773
5.42188	6.31932
4.54108	8.12886
4.98184	7.22426
5.42188	6.31932
6.49908	10.1647
5.55817	10.4973
4.9986	11.3225
6.49908	10.1647
6.15463	9.22613
5.8485	8.27443
4.9986	11.3225
5.2702	12.2842
5.90645	13.0556
4.9986	11.3225
5.92284	10.9682
6.50258	10.1666
4.9986	11.3225
5.88831	11.7857
6.8147	12.1703
7.66162	14.0268
8.56865	13.6057
7.66169	14.0268
7.4177	15.3224
8.3957	15.5308
9.37809	15.7174
8.15396	17.3001
8.62522	18.1811
9.09648	19.0621
8.15396	17.3001
8.77843	16.5183
9.37809	15.7174
8.15396	17.3001
9.1362	17.4917
10.1269	17.3535
9.09648	19.0621
9.65422	18.2335
10.1269	17.3535
9.09648	19.0621
10.0812	18.8969
11.0474	18.6451
9.60277	20.0343
10.289	19.3022
11.0474	18.6451
9.60277	20.0343
10.5815	19.8289
9.6028	20.0343
10.8539	21.5984
10.2284	20.8164
9.6028	20.0343
-11.6553	-22.5342
-11.1807	-21.6524
-10.3727	-21.0623
-11.194	-19.2317
-10.1958	-19.3414
-9.19748	-19.4511
-11.194	-19.2317
-10.8699	-20.186
-10.3727	-21.0623
-9.19748	-19.4511
-9.7851	-20.2567
-10.3727	-21.0623
-10.8923	-19.0099
-11.4645	-18.1881
-11.8114	-17.2489
-10.8923	-19.0099
-9.95351	-19.3422
-8.99994	-19.0526
-11.8114	-17.2489
-11.5419	-16.2885
-10.8973	-15.5265
-11.8114	-17.2489
-10.8902	-16.8682
-10	-17.3205
-10.8973	-15.5265
-10.3662	-16.382
-10	-17.3205
-9.53595	-13.6087
-9.42593	-12.6171
-9.31591	-11.6256
-9.53595	-13.6087
-9.68571	-14.589
-9.22285	-15.4664
-9.31591	-11.6256
-9.10736	-12.6066
-8.68079	-13.5147
-9.31591	-11.6256
-8.33501	-11.7997
-7.35412	-11.9738
-8.04173	-10.1367
-7.44082	-9.33904
-6.86197	-8.52529
-8.04173	-10.1367
-7.86951	-11.119
-7.35412	-11.9738
-8.04173	-10.1367
-7.05935	-10.3059
-6.06674	-10.3976
-6.86197	-8.52529
-6.31927	-7.68443
-5.71932	-6.88345
-6.86197	-8.52529
-6.47378	-9.46547
-6.06674	-10.3976
-6.86197	-8.52529
-5.88484	-8.36186
-4.95541	-8.70559
-5.71932	-6.88345
-4.96686	-6.21227
-4.20784	-5.54851
-5.71932	-6.88345
-5.2314	-7.75013
-4.95541	-8.70559
-5.71932	-6.88345
-4.87324	-7.40713
-4	-6.9282
-4.20784	-5.54851
-3.56078	-4.77087
-2.93465	-3.97627
-4.20784	-5.54851
-3.25562	-5.84864
-2.25802	-5.8838
-2.93465	-3.97627
-2.28983	-3.1973
-1.58226	-2.47494
-2.93465	-3.97627
-1.95266	-4.16838
-0.970668	-4.36049
-1.58226	-2.47494
-0.668576	-2.08847
-0.312982	-1.16309
-1.58226	-2.47494
-0.578005	-2.52541
0.426645	-2.56726
-0.312982	-1.16309
0.0132964	-0.217678
0.509913	0.650258
-0.312982	-1.16309
0.685299	-1.08242
1.6718	-0.909166
0.509913	0.650258
1.31888	1.23899
2.19997	1.71333
0.509913	0.650258
0.918591	-0.257935
1.6718	-0.909166
2.19997	1.71333
3.01846	2.28989
3.72375	3.00039
2.19997	1.71333
3.16082	1.43802
4.12166	1.16271
3.72375	3.00039
4.19989	3.87871
4.53081	4.82148
4.53081	4.82148
4.85301	3.87233
5.12544	2.90771
4.53081	4.82148
4.56865	5.81518
5.42192	6.31924
5.42188	6.31932
6.41704	6.22102
5.42188	6.31937
5.8485	8.27443
6.20635	9.20989
6.50258	10.1666
5.8485	8.27443
5.61761	7.30074
5.42188	6.31937
6.50258	10.1666
6.64751	11.1702
6.8147	12.1703
6.50258	10.1666
7.43281	10.5384
8.36304	10.9101
6.8147	12.1703
7.25923	13.089
7.66169	14.0268
6.8147	12.1703
7.58887	11.5402
8.36304	10.9101
6.8147	12.1703
7.79825	12.3191
8.60566	12.899
7.66169	14.0268
7.4078	14.9928
7.39194	15.9907
7.66169	14.0268
8.33085	14.8076
9	15.5885
7.39194	15.9907
8.39037	15.894
9.37809	15.7174
7.39194	15.9907
8.32984	16.3237
9	15.5885
9.37809	15.7174
10.1424	16.3562
10.1269	17.3535
9.37809	15.7174
9.97743	14.9169
9.37805	15.7173
9.37809	15.7174
10.3768	15.8617
11.384	15.8068
10.1269	17.3535
10.7412	16.5667
11.3882	15.8068
11.0474	18.6451
11.971	18.2569
12.909	17.9053
9.6028	20.0343
9.43685	21.0204
9.27089	22.0066
-10.9665	-22.9762
-10.6696	-22.0193
-10.3727	-21.0623
-10.9665	-22.9762
-9.96771	-23.0133
-9.07197	-22.5717
-10.3727	-21.0623
-10.0764	-20.1072
-10.3727	-21.0623
-10.3727	-21.0623
-9.72235	-21.817
-9.07197	-22.5717
-10.3727	-21.0623
-9.61697	-21.7258
-9.07204	-22.5717
-10.3727	-21.0623
-9.39151	-21.2696
-8.38838	-21.2836
-9.19741	-19.4511
-8.7929	-20.3674
-8.38838	-21.2836
-9.19741	-19.4511
-8.22633	-19.7159
-7.25525	-19.9808
-10	-17.3205
-9.59366	-16.4009
-9.22285	-15.4664
-10	-17.3205
-9.52514	-18.201
-9	-19.0526
-9.22285	-15.4664
-8.97453	-14.4842
-8.68079	-13.5147
-9.22285	-15.4664
-8.91998	-16.4185
-8.52556	-17.3363
-8.68079	-13.5147
-8.0377	-12.7268
-7.35412	-11.9738
-8.68079	-13.5147
-7.69062	-13.6851
-6.70044	-13.8556
-7.35412	-11.9738
-6.70326	-11.1916
-6.06674	-10.3976
-7.35412	-11.9738
-7.07175	-12.9302
-6.70044	-13.8556
-6.06674	-10.3976
-5.49596	-9.56154
-4.95541	-8.70559
-6.06674	-10.3976
-5.54295	-11.2669
-5	-12.1244
-6.06674	-10.3976
-5.06711	-10.3962
-4.06875	-10.3458
-4.95541	-8.70559
-4.51262	-7.79808
-4	-6.9282
-4.95541	-8.70559
-4.81271	-9.68841
-4.06875	-10.3458
-4.95541	-8.70559
-3.96532	-8.81251
-2.98131	-8.65856
-4	-6.9282
-3.13732	-6.39218
-2.25802	-5.8838
-4	-6.9282
-3.49065	-7.79338
-2.98131	-8.65856
-2.25802	-5.8838
-1.56049	-5.16771
-0.970668	-4.36049
-2.25802	-5.8838
-1.30614	-5.53329
-0.351867	-5.18937
0.426645	-2.56726
1.41237	-2.69723
2.30289	-2.25604
1.6718	-0.909166
2.67409	-0.971513
3.65506	-0.75881
1.6718	-0.909166
2.58779	-1.30309
2.30289	-2.25604
1.6718	-0.909166
2.6612	-0.803586
3.65614	-0.789931
3.65506	-0.75881
4.02507	0.168405
4.12166	1.16271
3.65506	-0.75881
4.64329	-0.584357
5.56926	-0.198288
4.12166	1.16271
4.58289	2.05856
5.12544	2.90771
4.12166	1.16271
4.84545	0.482202
5.56926	-0.198288
5.12544	2.90771
5.39721	1.94536
5.12548	2.90774
5.12544	2.90771
5.93239	3.50727
6.78343	4.04234
5.42192	6.31924
5.20866	5.34231
5.42188	6.31937
5.42192	6.31924
6.41532	6.18226
7.39303	5.95861
5.42188	6.31937
5.63517	7.29689
5.84845	8.27441
5.84845	8.27441
6.83128	8.09404
7.8141	7.91367
8.36304	10.9101
8.48435	11.9045
8.60566	12.899
8.60566	12.899
9.51863	12.4862
10.2827	11.8385
8.60566	12.899
9.05032	13.7894
10.0423	13.8363
9	15.5885
9.55149	14.7304
10.0423	13.8363
9.37805	15.7173
10.381	15.7621
11.384	15.8068
9.37805	15.7173
10.3817	15.7472
11.3841	15.8068
11.384	15.8068
12.3851	15.8515
11.3882	15.8068
11.384	15.8068
10.5799	16.4011
11.3841	15.8068
11.384	15.8068
11.9283	14.9737
12.6883	14.333
11.3882	15.8068
11.8921	14.9405
12.6883	14.333
11.3882	15.8068
12.3988	15.8049
13.3971	15.9635
12.909	17.9053
13.2226	16.9518
13.3971	15.9635
12.909	17.9053
13.9017	17.7884
14.8309	17.4214
14.8309	17.4213
15.8132	17.234
16.7955	17.0467
16.7955	17.0466
17.4523	17.8007
16.7955	17.0467
-9.07197	-22.5717
-8.81374	-23.5378
-9.07204	-22.5717
-9.07197	-22.5717
-8.94228	-21.5801
-9.07189	-22.5717
-9.07204	-22.5717
-9.32926	-21.6097
-8.38838	-21.2836
-8.38838	-21.2836
-7.4444	-20.9588
-7.25525	-19.9808
-8.38838	-21.2836
-7.41196	-21.5082
-6.4383	-21.7445
-7.25525	-19.9808
-8.07773	-19.4237
-9	-19.0526
-7.25525	-19.9808
-6.63174	-20.7636
-6.4383	-21.7445
-9	-19.0526
-9.19536	-18.0758
-8.52556	-17.3363
-9	-19.0526
-8.02944	-18.7747
-7.02847	-18.6449
-8.52556	-17.3363
-7.87038	-16.5836
-7.32888	-15.7454
-8.52556	-17.3363
-7.8371	-18.0592
-7.02847	-18.6449
-8.52556	-17.3363
-7.86393	-18.0903
-7.02842	-18.6448
-7.32888	-15.7454
-6.95372	-14.8208
-6.70044	-13.8556
-6.70044	-13.8556
-6.00805	-14.579
-5.21041	-15.1846
-5	-12.1244
-4.54437	-11.2298
-4.06875	-10.3458
-5	-12.1244
-3.99749	-11.9974
-2.99498	-11.8705
-4.06875	-10.3458
-3.53467	-9.49594
-2.98131	-8.65856
-4.06875	-10.3458
-3.25504	-10.9132
-2.99498	-11.8705
0.520055	-6.97887
-0.0315318	-6.14025
-0.351867	-5.18937
0.520055	-6.97887
-0.162092	-7.71663
-0.682036	-8.57614
-0.351867	-5.18937
0.145932	-4.31133
0.796307	-3.53916
-0.351867	-5.18937
0.0751143	-6.08852
0.520133	-6.97887
-0.351867	-5.18937
0.650278	-5.27508
1.65457	-5.32906
0.796307	-3.53916
1.48991	-2.82754
2.30289	-2.25604
0.796307	-3.53916
1.22542	-4.43412
1.65457	-5.32906
0.796307	-3.53916
-0.0607362	-4.04755
0.803474	-3.53747
2.30289	-2.25604
1.65101	-3.01104
0.803474	-3.53747
2.30289	-2.25604
3.03836	-1.58015
3.65448	-0.793806
3.65614	-0.789931
4.6127	-0.494104
5.56926	-0.198288
3.65614	-0.789931
4.19558	0.0496224
3.65448	-0.793806
5.56926	-0.198288
6.04743	0.684625
6.46223	1.59918
5.12548	2.90774
5.95308	3.47079
6.78069	4.03383
6.78343	4.04234
7.09975	4.99681
7.39303	5.95861
6.78343	4.04234
6.08275	4.7529
6.78069	4.03383
6.78343	4.04234
7.74021	4.33532
8.72534	4.51112
7.39303	5.95861
7.60498	6.93583
7.8141	7.91367
7.39303	5.95861
8.1908	5.35567
8.72534	4.51112
7.39303	5.95861
8.38327	6.12449
9.34516	6.41267
7.8141	7.91367
8.09764	8.87319
8.41536	9.82195
7.8141	7.91367
8.78623	8.14204
9.75836	8.37041
8.41536	9.82195
9.19931	9.19995
9.75836	8.37041
8.41536	9.82195
9.41435	9.81999
10.4134	9.81803
10.2827	11.8385
10.1897	12.8407
10.0423	13.8363
10.2827	11.8385
10.4071	10.8322
10.4134	9.81803
10.2827	11.8385
9.31102	11.6021
10.2827	11.8386
10.0423	13.8363
9.70117	14.7761
9.70176	15.7752
10.0423	13.8363
10.2061	12.8427
10.2827	11.8386
10.0423	13.8363
10.9454	13.392
11.8354	12.9219
9.70176	15.7752
10.5323	16.3284
11.3841	15.8068
11.3841	15.8068
11.9098	14.9574
12.6883	14.333
11.3841	15.8068
12.1903	15.211
12.9512	14.5584
11.3841	15.8068
12.3816	15.9576
13.3559	16.2187
12.6883	14.333
13.4573	14.9668
13.3971	15.9635
12.6883	14.333
13.0114	15.2797
13.3559	16.2187
12.6883	14.333
13.4877	14.9282
13.5113	15.9264
13.3971	15.9635
13.1419	14.997
13.5113	15.9264
14.8309	17.4214
15.8132	17.234
16.7955	17.0467
14.8309	17.4214
14.171	16.6739
13.5112	15.9264
14.8309	17.4214
15.2339	16.5069
15.4819	15.5385
16.7955	17.0467
16.1387	16.2926
15.4819	15.5385
-9.07189	-22.5717
-8.31775	-23.2306
-7.35707	-23.5153
-8.42731	-21.8251
-7.8925	-22.6704
-7.35707	-23.5153
-8.42731	-21.8251
-7.42928	-21.7643
-6.42942	-21.7636
-6.4383	-21.7445
-5.8887	-20.8991
-5.53126	-19.9565
-6.4383	-21.7445
-7.32451	-22.2086
-6.42942	-21.7636
-6.4383	-21.7445
-5.44447	-21.801
-4.46192	-21.6408
-5.53126	-19.9565
-6.18892	-19.1973
-7.02847	-18.6449
-5.53126	-19.9565
-4.99659	-20.7987
-4.46192	-21.6408
-5.53126	-19.9565
-6.51579	-20.1314
-5.53116	-19.9565
-7.02847	-18.6449
-6.25854	-19.2764
-5.53116	-19.9565
-7.02847	-18.6449
-6.20011	-19.2096
-5.53589	-19.9609
-7.02842	-18.6448
-6.04644	-18.419
-5.12121	-18.0192
-5.21041	-15.1846
-4.60882	-14.3863
-4.03394	-13.5686
-5.21041	-15.1846
-4.20873	-15.1916
-3.20706	-15.1986
-4.03394	-13.5686
-3.51364	-12.72
-2.99498	-11.8705
-4.03394	-13.5686
-3.97316	-14.563
-3.20706	-15.1986
-4.03394	-13.5686
-3.0284	-13.5763
-2.02286	-13.584
-2.99498	-11.8705
-2.41908	-11.0451
-1.83264	-10.2273
-2.99498	-11.8705
-2.65953	-12.8129
-2.02286	-13.584
-1.83264	-10.2273
-1.25803	-9.40122
-0.682036	-8.57614
-1.83264	-10.2273
-0.83268	-10.2535
0.167285	-10.2798
-0.682036	-8.57614
-0.0932991	-7.76821
0.520133	-6.97887
-0.682036	-8.57614
-0.525879	-9.56146
0.167285	-10.2798
0.520133	-6.97887
1.16799	-6.20924
1.65457	-5.32906
0.520133	-6.97887
0.981831	-7.86556
1.45115	-8.74824
0.520133	-6.97887
1.46909	-6.66346
2.41805	-6.34806
1.65457	-5.32906
1.35876	-4.37186
0.803474	-3.53747
1.65457	-5.32906
2.54091	-4.8417
3.41519	-4.33292
0.803474	-3.53747
1.67923	-3.02293
2.55515	-2.50867
3.65448	-0.793806
3.84882	0.180078
4.79542	0.48217
3.65448	-0.793806
3.10479	-1.65123
2.55515	-2.50867
4.79542	0.48217
5.65089	1.00772
6.46223	1.59918
6.46223	1.59918
7.46095	1.58285
7.75735	0.631855
6.46223	1.59918
7.21799	2.26236
8.16852	2.58911
6.78069	4.03383
7.75302	4.27247
8.72534	4.51112
6.78069	4.03383
7.47524	3.31208
8.16852	2.58911
8.72534	4.51112
8.54321	3.5224
8.16858	2.58918
9.34516	6.41267
8.93305	5.49508
8.7254	4.51118
9.34516	6.41267
10.3031	6.69969
9.34522	6.41273
9.75836	8.37041
10.6316	8.84727
10.4134	9.81803
9.75836	8.37041
9.64748	7.3715
9.34522	6.41273
10.4134	9.81803
10.4357	8.82066
10.7314	7.86805
10.2827	11.8386
11.2576	12.0758
12.2344	12.3049
11.8354	12.9219
12.3212	13.7893
12.9512	14.5584
11.8354	12.9219
12.839	12.823
13.8474	12.8153
12.9512	14.5584
13.6468	15.2685
13.3559	16.2187
12.9512	14.5584
13.5725	13.7758
13.8474	12.8153
13.3559	16.2187
14.263	15.7793
15.039	15.1352
13.3559	16.2187
14.1469	16.8297
15.1024	17.1191
13.5113	15.9264
14.2425	16.6085
15.1024	17.1191
13.5112	15.9264
14.4965	15.7325
15.4819	15.5385
13.5112	15.9264
14.4814	15.6961
15.457	15.4897
15.4819	15.5385
16.0956	14.7463
16.8254	14.0594
-8.28083	-25.2887
-7.7964	-24.4137
-7.35707	-23.5153
-8.28083	-25.2887
-7.28198	-25.2459
-6.28313	-25.203
-7.35707	-23.5153
-7.01264	-22.576
-6.42942	-21.7636
-7.35707	-23.5153
-6.82041	-24.3594
-6.28313	-25.203
-7.35707	-23.5153
-6.3579	-23.6099
-5.37204	-23.4231
-6.42942	-21.7636
-5.45637	-21.5343
-4.46192	-21.6408
-6.42942	-21.7636
-5.74042	-22.4908
-5.37204	-23.4231
-6.42942	-21.7636
-5.43414	-21.8812
-4.462	-21.6408
-4.46192	-21.6408
-3.92599	-22.485
-4.462	-21.6408
-5.53116	-19.9565
-5.73427	-20.9384
-5.53589	-19.9609
-5.53116	-19.9565
-4.80076	-20.6397
-5.52865	-19.9541
-5.53589	-19.9609
-5.33597	-18.9885
-5.12121	-18.0192
-5.53589	-19.9609
-4.74706	-19.3419
-3.95824	-18.7228
-5.12121	-18.0192
-4.1626	-17.7476
-3.9583	-18.7228
-3.20706	-15.1986
-2.61496	-14.3913
-2.02286	-13.584
-3.20706	-15.1986
-2.21586	-15.312
-1.22984	-15.4634
-2.02286	-13.584
-1.04898	-13.7938
-0.0726342	-13.9919
-0.778633	-12.043
-0.332922	-11.1467
0.167285	-10.2798
-0.778633	-12.043
-1.52467	-12.7138
-2.02278	-13.584
-0.778633	-12.043
0.219219	-11.941
1.21707	-11.8391
0.167285	-10.2798
0.782143	-9.49131
1.45115	-8.74824
0.167285	-10.2798
0.969316	-10.8738
1.21707	-11.8391
2.41805	-6.34806
2.87754	-7.23625
3.33703	-8.12443
3.41519	-4.33292
2.98517	-3.4208
2.55515	-2.50867
3.41519	-4.33292
4.42193	-4.22406
5.42337	-4.07461
2.55515	-2.50867
3.41747	-2.0023
4.27976	-1.49589
7.3465	-1.32549
7.5519	-0.346813
7.75735	0.631855
7.75735	0.631855
7.96291	1.61049
8.16852	2.58911
7.75735	0.631855
6.90577	0.109607
6.04951	-0.404996
8.16852	2.58911
8.89964	1.90363
9.5957	1.18236
8.16858	2.58918
8.45222	3.54866
8.7254	4.51118
8.16858	2.58918
9.13963	2.8405
10.1107	3.09183
8.7254	4.51118
8.97646	5.48118
9.34522	6.41273
8.7254	4.51118
9.31396	3.70022
10.1107	3.09183
9.34522	6.41273
10.0043	7.17277
10.7314	7.86805
10.7314	7.86805
11.353	7.07518
12.0485	6.3461
11.4881	9.96433
12.4021	9.55518
13.1381	8.87675
11.4881	9.96433
12.3455	10.4755
13.2561	10.8842
12.2344	12.3049
13.2165	12.5105
14.2091	12.6568
13.8474	12.8153
13.6146	11.8483
14.2091	12.6568
15.039	15.1352
15.0707	16.1271
15.1024	17.1191
15.039	15.1352
16.0195	15.3618
17	15.5885
15.1024	17.1191
15.3145	16.136
15.3552	15.1306
13.5113	15.9264
14.5028	15.7908
15.457	15.4897
13.5113	15.9264
14.4537	15.5758
15.3552	15.1306
15.457	15.4897
16.233	14.8626
16.8254	14.0594
15.457	15.4897
16.4414	15.3138
17.4285	15.1533
-6.28313	-25.203
-5.82743	-24.3132
-5.37204	-23.4231
-5.37204	-23.4231
-4.91688	-22.532
-4.462	-21.6408
-5.37204	-23.4231
-4.71993	-22.6719
-4.5957	-21.684
-4.462	-21.6408
-4.82888	-20.7097
-5.25651	-19.8047
-5.52865	-19.9541
-4.74344	-19.3385
-3.95824	-18.7228
-5.52865	-19.9541
-4.801	-19.2649
-3.9582	-18.7229
-3.95824	-18.7228
-3.17132	-18.1058
-3.9583	-18.7228
-3.95824	-18.7228
-3.22512	-18.0361
-2.49201	-17.3494
-1.22984	-15.4634
-0.532826	-16.1758
-0.490745	-17.1723
-1.22984	-15.4634
-0.238366	-15.5942
0.753322	-15.7234
-0.0726342	-13.9919
0.582105	-14.7419
0.753322	-15.7234
-2.02278	-13.584
-1.50946	-14.4376
-0.541602	-14.192
-2.02278	-13.584
-1.30251	-12.8966
-0.582257	-12.2092
1.21707	-11.8391
1.87331	-11.0819
2.52955	-10.3247
1.21707	-11.8391
0.396724	-12.4055
-0.582257	-12.2092
2.52955	-10.3247
3.18572	-9.5675
3.84188	-8.81026
3.33703	-8.12443
3.99908	-7.37497
4.66117	-6.62554
3.33703	-8.12443
4.24824	-7.7125
5.15929	-7.3002
4.66117	-6.62554
5.57179	-6.21229
6.48242	-5.79908
5.42337	-4.07461
5.9529	-4.93684
6.48242	-5.79908
5.42337	-4.07461
6.11613	-3.33749
6.71278	-2.52044
6.04951	-0.404996
7.03914	-0.271624
8	0
6.04951	-0.404996
6.2824	-1.37316
7.14261	-1.87864
6.04951	-0.404996
7.03144	-0.213751
8.01756	-0.0454971
8	0
8.87564	0.486266
9.5957	1.18236
8	0
7.07613	-0.382687
8.01756	-0.0454971
8	0
8.79784	0.59116
9.5957	1.18229
9.5957	1.18236
9.98309	2.10195
10.1107	3.09183
9.5957	1.18236
10.5966	1.23461
11.497	1.67555
10.1107	3.09183
10.2385	4.08363
10.1106	3.09183
12.0485	6.3461
12.7627	5.63543
13.4817	4.92949
13.1381	8.87675
13.1516	9.88316
13.2561	10.8842
13.1381	8.87675
13.1371	7.87069
13.0028	6.87338
13.1381	8.87675
14.1423	8.89744
15.1465	8.91814
13.2561	10.8842
13.6878	11.7945
14.2091	12.6568
13.2561	10.8842
14.2204	11.1251
15.1929	10.9189
14.2091	12.6568
14.7944	13.4941
15.4161	14.3047
14.2091	12.6568
14.829	11.8605
15.1929	10.9189
14.2091	12.6568
15.209	12.655
16.206	12.5785
15.4161	14.3047
16.2331	14.9158
17	15.5885
15.4161	14.3047
16.0879	13.5678
16.206	12.5785
15.4161	14.3047
16.3797	14.559
16.6853	13.6112
17	15.5885
16.0406	15.856
15.3552	15.1306
17	15.5885
16.8006	14.6065
16.6853	13.6112
15.3552	15.1306
16.0485	14.3957
16.6852	13.6112
15.3552	15.1306
15.7832	14.2259
16.4004	13.4379
16.4005	13.4379
16.9145	14.2956
17.4285	15.1533
16.4005	13.4379
15.6091	14.0493
16.4004	13.4379
16.4005	13.4379
17.3313	13.8109
18.3244	13.9473
-5.37197	-23.4231
-4.71748	-22.6721
-4.5957	-21.684
-5.37197	-23.4231
-4.53025	-23.9627
-3.68852	-24.5023
-5.37197	-23.4231
-4.47378	-22.965
-3.57645	-22.5051
-4.5957	-21.684
-4.96424	-20.7576
-5.25651	-19.8047
-4.5957	-21.684
-4.23669	-20.7564
-3.34202	-20.3214
-5.25651	-19.8047
-4.94575	-18.859
-3.9582	-18.7229
-5.25651	-19.8047
-4.27164	-19.9609
-3.34202	-20.3214
-5.25651	-19.8047
-4.72172	-18.9609
-3.85825	-18.4569
-3.9582	-18.7229
-2.95094	-18.6452
-1.9409	-18.6702
-2.49201	-17.3494
-1.48636	-17.317
-0.490745	-17.1723
-2.49201	-17.3494
-2.85666	-18.2784
-1.9409	-18.6702
-0.490745	-17.1723
0.358957	-16.643
0.753322	-15.7234
-0.490745	-17.1723
-0.601569	-18.1629
0.0310483	-18.9314
-0.490745	-17.1723
0.494453	-17.3755
1.47965	-17.5787
0.753322	-15.7234
0.144713	-14.9251
-0.541602	-14.192
0.753322	-15.7234
1.06716	-16.6704
1.47965	-17.5787
0.753322	-15.7234
1.73726	-15.8483
2.71454	-16.0177
-0.541602	-14.192
-0.695121	-13.2035
-0.582257	-12.2092
-0.541602	-14.192
0.448077	-14.3529
1.43776	-14.5138
3.84188	-8.81026
4.50005	-8.05477
5.15929	-7.3002
5.15929	-7.3002
5.82023	-6.54909
6.48242	-5.79908
5.15929	-7.3002
6.0712	-6.88659
7.03715	-6.62319
7.14261	-1.87864
7.55614	-0.950618
8.01756	-0.0454971
7.14261	-1.87864
7.87319	-2.56198
8.52844	-3.31792
7.14261	-1.87864
8.14162	-1.83085
9.13968	-1.76622
8.01756	-0.0454971
8.73832	0.65625
9.5957	1.18229
8.01756	-0.0454971
9.005	0.0736009
9.99798	0.0169873
9.5957	1.18229
10.5915	1.25686
11.497	1.67555
11.497	1.67555
10.9201	2.497
10.1108	3.0918
11.497	1.67555
11.7384	0.696215
11.9798	-0.28312
11.497	1.67555
12.2371	2.35664
13.0428	2.95843
13.4817	4.92949
14.1952	4.22881
13.4817	4.92934
13.0028	6.87338
13.1317	5.87408
13.4817	4.92943
13.0028	6.87338
13.9145	7.27808
14.851	6.93816
15.1465	8.91814
15.1182	9.91972
15.1929	10.9189
15.1929	10.9189
15.5194	11.8585
16.206	12.5785
15.1929	10.9189
15.2312	9.91711
15.1466	8.91811
16.206	12.5785
15.677	11.7268
14.966	11.0195
16.6853	13.6112
16.7857	12.6091
16.869	11.6054
16.6853	13.6112
16.8159	12.6195
16.859	11.6202
16.4004	13.4379
17.3624	13.6926
18.3244	13.9473
16.4004	13.4379
17.1955	12.8235
17.8295	12.0444
16.4004	13.4379
17.0931	12.7187
17.8296	12.0444
18.3244	13.9473
17.9039	13.0406
17.8296	12.0444
18.3244	13.9473
19.1649	13.4072
19.7541	12.5998
-3.68852	-24.5023
-3.63249	-23.5037
-3.57645	-22.5051
-3.68852	-24.5023
-2.79548	-24.0528
-1.90349	-23.6011
-3.57645	-22.5051
-2.73998	-23.0531
-1.90349	-23.6011
-3.57645	-22.5051
-2.68255	-22.0385
-1.78656	-21.5758
-3.34202	-20.3214
-3.84489	-19.4563
-3.85825	-18.4569
-3.34202	-20.3214
-2.53884	-20.917
-1.78656	-21.5758
-3.34202	-20.3214
-2.42206	-19.9406
-1.5367	-19.4852
-3.85825	-18.4569
-2.87141	-18.3048
-1.9409	-18.6702
-1.9409	-18.6702
-0.97169	-18.9282
0.0310483	-18.9314
-1.9409	-18.6702
-0.946822	-18.5315
0.00837706	-18.2227
0.0310483	-18.9314
0.843624	-18.3499
1.47965	-17.5787
0.0310483	-18.9314
1.03127	-18.9709
1.9917	-18.6871
0.0310483	-18.9314
0.413698	-18.0075
0.796357	-17.0836
1.47965	-17.5787
2.19953	-16.8789
2.71454	-16.0177
2.71454	-16.0177
2.21062	-15.152
1.43776	-14.5138
2.71454	-16.0177
3.72137	-15.9374
4.72821	-15.8571
3.22038	-15.0309
3.99355	-14.3967
4.76672	-13.7625
3.22038	-15.0309
3.98944	-14.3917
4.7585	-13.7526
4.70751	-9.65051
5.57615	-9.15393
6.32688	-8.49272
4.70751	-9.65051
5.61513	-10.068
6.52275	-10.4855
6.32688	-8.49272
6.72311	-7.57363
7.03715	-6.62319
6.32688	-8.49272
6.45529	-9.48612
6.52275	-10.4855
6.32688	-8.49272
7.32763	-8.52606
8.32878	-8.54382
7.03715	-6.62319
7.55893	-5.77675
8.24399	-5.05585
7.03715	-6.62319
8.04034	-6.73782
9.03989	-6.88101
8.24399	-5.05585
8.84091	-4.26158
8.52844	-3.31792
8.24399	-5.05585
8.58184	-5.99466
9.03989	-6.88101
8.52844	-3.31792
8.3309	-2.34465
9.13968	-1.76622
9.13968	-1.76622
9.6844	-0.930346
9.99798	0.0169873
9.13968	-1.76622
10.098	-2.03631
9.6088	-2.90543
9.13968	-1.76622
10.1336	-1.6674
11.1315	-1.62605
9.99798	0.0169873
10.6383	-0.753919
11.1315	-1.62605
9.99798	0.0169873
10.9941	-0.0989596
11.9798	-0.283217
11.9798	-0.28312
12.6701	0.444702
13.5015	1.0055
13.0428	2.95843
13.2623	3.94388
13.4817	4.92934
13.0428	2.95843
13.2788	1.98354
13.5015	1.0055
13.0428	2.95843
14.0419	2.90588
14.9817	2.56152
13.4817	4.92934
13.6991	5.90548
13.4817	4.92943
13.4817	4.92943
14.3463	4.41708
15.2788	4.04158
13.4817	4.92943
14.3532	4.43051
15.2789	4.04163
14.851	6.93816
14.9988	7.92814
15.1466	8.91811
14.851	6.93816
15.2328	6.01594
15.67	5.11879
15.1466	8.91811
15.9313	8.28934
16.716	7.66056
14.966	11.0195
15.9175	11.3125
16.869	11.6054
14.966	11.0195
15.7636	10.4141
16.4032	9.644
16.869	11.6054
16.6686	10.617
16.4032	9.644
16.869	11.6054
16.0496	11.0319
15.2301	10.4584
16.859	11.6202
16.0446	11.0393
15.2301	10.4584
17.8295	12.0444
16.8688	11.7671
17.8296	12.0444
17.8295	12.0444
17.693	11.054
17.2067	10.1798
17.8296	12.0444
18.7918	12.3221
19.7541	12.5998
17.8296	12.0444
18.4027	11.2224
19.1604	10.5662
-1.90349	-23.6011
-1.0136	-23.1453
-0.124774	-22.6874
-1.78656	-21.5758
-0.970094	-22.1532
-0.124774	-22.6874
-1.78656	-21.5758
-0.879377	-21.1374
0.0307228	-20.7052
-1.5367	-19.4852
-0.764157	-18.8539
0.00837706	-18.2227
-1.5367	-19.4852
-0.671078	-19.9902
0.0307228	-20.7052
-1.5367	-19.4852
-0.719451	-18.9157
0.257557	-18.7241
0.00837706	-18.2227
0.98856	-18.0161
1.96874	-17.8096
1.9917	-18.6871
1.39402	-17.8854
0.796357	-17.0836
1.9917	-18.6871
2.5417	-17.8496
3.0917	-17.0121
4.72821	-15.8571
4.79189	-14.8592
4.85558	-13.8612
4.72821	-15.8571
5.2171	-14.9926
6.05761	-14.4636
4.85558	-13.8612
5.57608	-13.1677
6.29656	-12.4743
4.76672	-13.7625
5.53165	-13.1183
6.29658	-12.4742
4.7585	-13.7526
5.52755	-13.1134
6.29658	-12.4742
4.7585	-13.7526
5.52756	-13.1134
6.2966	-12.4742
6.52275	-10.4855
6.44144	-11.4834
6.2966	-12.4742
8.32878	-8.54382
9.32991	-8.52529
10.3274	-8.43779
9.03989	-6.88101
9.12098	-5.87744
9.21246	-4.87476
9.03989	-6.88101
9.66261	-7.67678
10.3274	-8.43779
9.03989	-6.88101
10.0356	-6.77888
11.0147	-6.57038
9.21246	-4.87476
9.34304	-3.87643
9.6088	-2.90543
9.6088	-2.90543
10.2988	-2.18093
11.1315	-1.62605
9.6088	-2.90543
9.44662	-3.89089
9.48792	-4.88889
11.1315	-1.62605
11.1812	-2.62592
11.0354	-3.61652
11.1315	-1.62605
12.13	-1.71729
13.1009	-1.96758
11.9798	-0.283217
12.7406	0.361146
13.5015	1.0055
11.9798	-0.283217
12.5782	-1.10027
13.1009	-1.96758
11.9798	-0.283217
12.9289	-0.590856
13.8539	-0.964794
13.5015	1.0055
13.6862	0.0218756
13.8539	-0.964794
13.5015	1.0055
14.5002	0.953929
15.4403	0.611945
14.9817	2.56152
15.2195	1.58873
15.4403	0.611945
15.2788	4.04158
14.9309	4.97912
15.2789	4.04163
15.2788	4.04158
16.1467	3.55722
15.9097	2.59065
15.2789	4.04163
16.2809	3.98892
17.283	3.93621
15.2789	4.04163
16.2829	4.02607
17.2829	3.93629
15.67	5.11879
16.4903	4.54649
17.2829	3.93629
15.67	5.11879
16.6563	4.98024
17.3072	5.73655
16.716	7.66056
16.5596	8.65228
16.4032	9.644
16.716	7.66056
17.0116	6.69856
17.3072	5.73655
16.4032	9.644
16.5457	8.65007
16.7161	7.6606
15.2301	10.4584
16.2107	10.2641
17.2067	10.1798
17.2067	10.1798
18.1968	10.3057
19.1604	10.5662
19.1604	10.5662
19.8521	11.2885
19.1604	10.5662
-0.124774	-22.6874
-0.016944	-21.6987
0.0307228	-20.7052
-0.124774	-22.6874
0.764235	-22.2295
-0.12477	-22.6874
0.0307228	-20.7052
0.0401648	-19.7026
0.257557	-18.7241
0.0307228	-20.7052
0.0807384	-21.7061
-0.12477	-22.6874
0.257557	-18.7241
1.0037	-18.0627
1.96874	-17.8096
0.257557	-18.7241
0.144178	-19.7146
0.0308197	-20.7052
0.257557	-18.7241
1.20133	-19.0421
1.83732	-19.8091
1.96874	-17.8096
1.90303	-18.8094
1.83732	-19.8091
3.0917	-17.0121
3.91	-16.4347
4.72828	-15.8572
3.0917	-17.0121
3.37228	-17.9712
3.64964	-18.9312
4.72828	-15.8572
5.00761	-16.8155
5.28696	-17.7738
4.72828	-15.8572
5.68458	-16.18
6.6764	-16.3662
6.05761	-14.4636
6.17709	-13.4689
6.29656	-12.4743
6.05761	-14.4636
6.367	-15.4149
6.6764	-16.3662
6.05761	-14.4636
6.94209	-13.9898
7.89368	-13.672
6.29656	-12.4743
6.41582	-11.4814
6.29658	-12.4742
6.29656	-12.4743
7.12557	-13.0326
7.89368	-13.672
6.29658	-12.4742
6.17734	-13.467
6.2966	-12.4742
8.82389	-9.74533
9.63042	-9.15447
10.3274	-8.43779
8.82389	-9.74533
9.57064	-10.4095
10.2576	-11.1354
10.3274	-8.43779
10.7566	-7.53563
11.0147	-6.57038
10.3274	-8.43779
11.0435	-9.15282
11.7691	-9.85823
10.3274	-8.43779
11.3056	-8.22695
12.2602	-7.92672
11.0147	-6.57038
11.9928	-6.36224
11.0147	-6.57043
9.48792	-4.88889
10.2617	-4.25271
11.0354	-3.61652
9.48792	-4.88889
10.4735	-5.05487
11.459	-5.22081
11.0354	-3.61652
12.0209	-3.78843
13.0064	-3.96033
13.1009	-1.96758
13.1485	-2.96837
13.0064	-3.96033
13.1009	-1.96758
13.9627	-2.5022
14.7952	-3.08141
13.8539	-0.964794
14.7893	-1.31308
15.7859	-1.36318
15.4403	0.611945
15.6207	-0.374279
15.7859	-1.36318
15.9097	2.59065
15.9745	1.58846
16.1357	0.59716
15.9097	2.59065
16.6215	1.88769
17.4252	1.292
17.2829	3.93629
18.0118	3.25259
18.5881	2.43618
17.2829	3.93629
18.0282	3.26709
18.5881	2.43624
17.3072	5.73655
17.0116	6.69855
16.7161	7.66054
16.7161	7.66054
15.8398	7.17573
14.9635	6.69092
16.7161	7.66054
16.6787	6.66199
16.6413	5.66345
16.7161	7.6606
16.43	6.70243
16.716	7.66065
16.7161	7.6606
16.6787	6.66203
16.6413	5.66345
16.7161	7.6606
17.4556	6.97725
18.3814	6.5815
16.716	7.66065
17.0015	8.61683
17.504	9.47876
16.716	7.66065
17.5693	7.15281
18.3814	6.5815
16.716	7.66065
17.5746	8.17893
18.4332	8.6972
17.504	9.47876
18.2672	10.1213
19.1604	10.5662
19.1604	10.5662
18.7968	9.63173
18.4332	8.69726
-0.12477	-22.6874
-0.179837	-21.6856
0.0308197	-20.7052
0.0308197	-20.7052
0.901647	-20.192
1.83732	-19.8091
1.83732	-19.8091
2.75242	-19.3886
3.64964	-18.9312
3.64964	-18.9312
4.4857	-18.3771
5.28696	-17.7738
3.64964	-18.9312
3.92069	-19.8913
4.2676	-20.8267
3.64964	-18.9312
4.41428	-19.5665
5.29466	-19.1041
5.28696	-17.7738
6.04786	-17.1353
6.6764	-16.3662
5.28696	-17.7738
5.85014	-16.9486
6.70281	-16.4289
6.6764	-16.3662
7.56636	-15.9089
8.44803	-15.4359
7.89368	-13.672
8.52535	-14.4428
8.44803	-15.4359
7.89368	-13.672
8.8918	-13.7747
9.86519	-14.0187
9.54941	-12.048
10.3334	-11.4305
11.1173	-10.813
9.54941	-12.048
9.7183	-13.0316
9.86519	-14.0187
9.54941	-12.048
10.4883	-12.398
11.4272	-12.7479
11.1173	-10.813
11.0699	-11.8132
11.4273	-12.7478
10.2576	-11.1354
11.098	-10.5968
11.7691	-9.85823
10.2576	-11.1354
10.8194	-11.9584
11.4273	-12.7478
10.2576	-11.1354
11.261	-11.1191
12.2644	-11.1028
11.7691	-9.85823
12.1024	-8.91485
12.2602	-7.92672
11.7691	-9.85823
12.757	-9.68008
13.6939	-9.3204
12.2602	-7.92672
12.977	-8.62357
13.6939	-9.3204
12.2602	-7.92672
13.1889	-7.55442
14.1492	-7.27362
11.459	-5.22081
12.1958	-4.5452
13.0064	-3.96033
13.0064	-3.96033
13.9254	-3.57086
14.7952	-3.08141
14.7952	-3.08141
15.4069	-2.28947
15.7859	-1.36318
14.7952	-3.08141
15.4838	-3.82713
16.1682	-4.57672
15.7859	-1.36318
15.9752	-0.385581
16.1357	0.59716
15.7859	-1.36318
16.7153	-0.992816
17.6723	-0.701724
16.1357	0.59716
16.4595	1.53719
17.4252	1.292
16.1357	0.59716
16.904	-0.0522406
17.6724	-0.701641
17.4252	1.292
18.4068	1.45639
18.5881	2.43618
17.4252	1.292
17.5583	0.296363
17.6724	-0.701641
17.4252	1.292
18.3668	0.961614
19.2641	0.525212
18.5881	2.43618
18.926	1.48069
19.2641	0.525212
18.5881	2.43618
19.5151	2.81127
18.5881	2.43615
14.9635	6.69092
15.7106	6.02695
16.6413	5.66345
16.6413	5.66345
17.5932	5.96689
18.3814	6.5815
18.3814	6.5815
19.1903	5.99363
20.0143	5.42722
18.3814	6.5815
19.3251	6.90971
20.0835	7.56094
18.4332	8.6972
19.2578	8.12825
20.0835	7.56094
18.4332	8.69726
18.0706	7.76535
17.7078	6.83344
3.4865	-26.1614
3.82101	-25.219
4.15552	-24.2766
3.4865	-26.1614
3.84747	-25.2288
4.20844	-24.2963
4.2676	-20.8267
4.78113	-19.9654
5.29466	-19.1041
4.2676	-20.8267
4.72328	-21.7167
5.2315	-22.5777
4.2676	-20.8267
5.25999	-20.928
6.25507	-20.8589
5.29466	-19.1041
5.77485	-19.9815
6.25507	-20.8589
5.29466	-19.1041
6.22617	-18.7228
7.16719	-18.3656
6.70281	-16.4289
6.8784	-17.4108
7.16719	-18.3656
6.70281	-16.4289
7.69132	-16.6498
8.64322	-16.9965
8.44803	-15.4359
9.14595	-14.7167
9.86519	-14.0187
8.44803	-15.4359
7.94073	-16.2936
8.64322	-16.9965
8.44803	-15.4359
9.44121	-15.5558
10.3661	-15.9379
9.86519	-14.0187
10.6397	-13.3754
11.4272	-12.7479
9.86519	-14.0187
9.97959	-15.0141
10.3661	-15.9379
11.4273	-12.7478
12.1926	-13.3823
13.1864	-13.3464
11.4273	-12.7478
12.4334	-12.8175
13.4381	-12.7262
12.2644	-11.1028
12.8512	-11.9145
13.4381	-12.7262
13.6939	-9.3204
14.2706	-8.50996
14.9756	-9.21195
14.1492	-7.27362
15.1326	-7.42184
16.1161	-7.57001
14.1492	-7.27362
15.1548	-7.27553
16.116	-7.57006
16.1161	-7.57001
15.6467	-8.45303
16.116	-7.57006
16.1161	-7.57001
16.1936	-8.56696
16.1161	-7.56993
15.725	-5.60692
15.8912	-6.59428
16.1161	-7.56993
15.725	-5.60692
16.484	-6.24784
17.4683	-6.11346
16.1682	-4.57672
16.8218	-5.34214
17.4683	-6.11346
18.1482	-2.66265
17.9103	-1.68219
17.6723	-0.701724
18.1482	-2.66265
17.4494	-3.38903
16.9217	-4.24735
18.1482	-2.66265
19.0741	-3.06338
20	-3.4641
17.6723	-0.701724
18.6113	-1.03271
18.6613	-2.02855
17.6724	-0.701641
18.4682	-0.0882133
19.2641	0.525212
17.6724	-0.701641
17.7253	-1.69394
18.6613	-2.02855
19.2641	0.525212
19.8435	-0.295131
20.3475	-1.1637
19.2641	0.525212
19.8627	-0.282652
20.3475	-1.16371
20.0259	3.42725
20.0201	4.42724
20.0143	5.42722
20.0259	3.42725
20.8949	2.93232
21.7638	2.43739
20.0259	3.42725
20.889	3.93229
21.7521	4.43735
20.0143	5.42722
20.8749	4.91777
21.7521	4.43735
20.0143	5.42722
20.8768	5.93262
21.7393	6.43802
20.0835	7.56094
20.9108	6.99851
21.7393	6.43802
4.20844	-24.2963
4.71995	-23.437
5.2315	-22.5777
5.2315	-22.5777
5.74327	-21.7183
6.25507	-20.8589
5.2315	-22.5777
5.01765	-23.5546
4.80379	-24.5315
6.25507	-20.8589
7.20726	-20.5609
8.10733	-20.1302
7.16719	-18.3656
7.89144	-17.6662
8.64322	-16.9965
7.16719	-18.3656
7.60422	-19.2655
8.10733	-20.1302
8.64322	-16.9965
9.49139	-16.4456
10.3661	-15.9379
8.64322	-16.9965
9.59803	-17.307
10.5885	-17.4722
10.3661	-15.9379
11.2809	-15.519
12.1652	-15.0392
10.3661	-15.9379
11.2955	-16.3141
12.291	-16.4365
12.1652	-15.0392
12.8344	-14.2882
13.1864	-13.3464
12.1652	-15.0392
12.9359	-15.6811
13.795	-16.1984
13.1864	-13.3464
12.4426	-12.6788
13.4381	-12.7262
13.1864	-13.3464
13.9216	-14.0209
14.8082	-14.4779
13.4381	-12.7262
14.2153	-12.0966
14.6348	-11.1881
13.4381	-12.7262
14.4455	-12.8714
15.4534	-13.0139
14.6348	-11.1881
14.7917	-10.1977
14.9756	-9.21195
14.6348	-11.1881
14.9978	-12.1217
15.4534	-13.0139
14.6348	-11.1881
15.6266	-11.3165
16.6252	-11.3725
14.9756	-9.21195
15.4888	-8.35147
16.116	-7.57006
14.9756	-9.21195
15.9676	-9.34549
16.9679	-9.38834
16.116	-7.57006
16.5698	-8.46604
16.9679	-9.38825
16.1161	-7.56993
16.8859	-6.92841
17.4683	-6.11346
16.1161	-7.56993
16.4761	-8.51002
16.9679	-9.38825
17.4683	-6.11346
17.4107	-5.11752
16.9217	-4.24735
16.9217	-4.24735
17.3822	-5.13998
18.0641	-5.87809
20	-3.4641
19.1836	-2.88295
18.6613	-2.02855
20	-3.4641
20.0104	-4.46405
20.0208	-5.46399
18.6613	-2.02855
19.3599	-1.31575
20.3475	-1.1637
18.6613	-2.02855
19.5264	-2.52272
20.2974	-3.15377
20.3475	-1.1637
21.3359	-1.01151
20.3475	-1.16371
20.3475	-1.1637
20.294	-2.15807
20.2973	-3.15374
20.3475	-1.1637
21.3085	-0.887087
20.3476	-1.16378
20.3475	-1.16371
19.5947	-0.505535
20.3476	-1.16378
21.693	1.41388
22.0315	0.472456
22.2128	-0.511306
21.693	1.41388
22.6588	1.15749
23.6246	0.901086
21.7638	2.43739
21.758	3.43737
21.7521	4.43735
21.7521	4.43735
21.7458	5.43768
21.7393	6.43802
21.7521	4.43735
22.6292	3.95699
21.7521	4.4373
21.7521	4.43735
22.6152	4.94247
23.4782	5.4476
21.7393	6.43802
21.7329	7.438
21.7264	8.43797
8.10733	-20.1302
9.01961	-19.7253
9.96154	-19.3951
10.5885	-17.4722
11.4398	-16.9544
12.291	-16.4365
10.5885	-17.4722
9.60569	-17.6566
10.5886	-17.4722
12.291	-16.4365
12.313	-17.4375
12.3351	-18.4385
14.3052	-18.1146
13.9167	-17.1918
13.795	-16.1984
14.3052	-18.1146
13.3201	-18.2766
12.3351	-18.4385
14.3052	-18.1146
15.2955	-18.253
16.2874	-18.129
13.795	-16.1984
14.3149	-15.3459
14.8082	-14.4779
13.795	-16.1984
14.7877	-16.3099
15.7834	-16.2266
14.8082	-14.4779
14.594	-13.5087
15.4534	-13.0139
14.8082	-14.4779
15.2173	-15.3961
15.7834	-16.2266
14.8082	-14.4779
15.7998	-14.5837
16.7964	-14.5423
15.4534	-13.0139
16.0974	-12.2347
16.6252	-11.3725
15.4534	-13.0139
16.1255	-13.7776
16.7964	-14.5423
15.4534	-13.0139
16.4467	-12.9025
17.4164	-12.66
16.6252	-11.3725
16.8378	-10.3876
16.9679	-9.38834
16.6252	-11.3725
17.6267	-11.2796
18.6234	-11.1445
16.9679	-9.38834
17.8676	-9.82468
18.6627	-10.4313
16.9679	-9.38825
16.8111	-8.40103
16.6542	-7.4138
16.9679	-9.38825
17.7629	-9.99472
18.6627	-10.4313
16.9679	-9.38825
17.7931	-9.96017
18.7326	-10.3146
16.6542	-7.4138
17.5158	-7.92188
18.4135	-8.36289
18.0641	-5.87809
19.0424	-5.67104
20.0208	-5.46399
18.0641	-5.87809
18.906	-6.42695
19.7732	-6.9347
20.2974	-3.15377
20.4046	-4.14799
20.2973	-3.15374
20.2973	-3.15374
20.1896	-2.1552
20.3476	-1.16378
20.2973	-3.15374
20.8992	-3.95087
21.7385	-4.49323
20.2973	-3.15374
20.8845	-2.34678
21.8695	-2.49444
20.3476	-1.16378
21.2355	-0.710946
22.2128	-0.511306
20.3476	-1.16378
21.1085	-1.82911
21.8695	-2.49444
22.2128	-0.511306
22.9823	0.131212
23.6246	0.901086
22.2128	-0.511306
22.0474	-1.5039
21.8695	-2.49436
22.2128	-0.511306
23.1786	-0.770744
24.1443	-1.03019
23.6246	0.901086
23.8845	-0.0645511
24.1443	-1.03019
21.7521	4.4373
22.2203	3.55331
22.6885	2.66931
9.96154	-19.3951
10.9303	-19.1547
11.912	-18.9744
10.5886	-17.4722
11.4618	-17.9554
12.3351	-18.4385
10.5886	-17.4722
11.2503	-18.2233
11.912	-18.9744
10.5886	-17.4722
11.5798	-17.2863
12.571	-17.1003
16.2874	-18.129
15.8758	-17.2199
15.7834	-16.2266
16.2874	-18.129
17.0831	-17.5218
17.7239	-16.7527
15.7834	-16.2266
16.1591	-15.306
16.7964	-14.5423
15.7834	-16.2266
16.7343	-16.5606
17.7239	-16.7527
15.7834	-16.2266
16.7771	-16.22
17.7665	-16.3139
16.7964	-14.5423
17.1837	-13.6267
17.4164	-12.66
16.7964	-14.5423
17.2463	-15.4474
17.7665	-16.3139
16.7964	-14.5423
17.7958	-14.668
18.7889	-14.8364
17.4164	-12.66
17.8446	-11.7628
18.6234	-11.1445
18.6234	-11.1445
19.0906	-12.0338
19.4761	-12.9614
18.7326	-10.3146
18.427	-9.36248
18.4135	-8.36289
18.7326	-10.3146
19.2301	-11.1821
19.7277	-12.0495
18.7326	-10.3146
19.7271	-10.4601
20.7212	-10.3137
18.4135	-8.36289
18.9758	-7.53709
19.7732	-6.9347
18.4135	-8.36289
19.3677	-8.6572
20.3458	-8.85869
19.7732	-6.9347
20.0192	-7.90872
20.3458	-8.85869
19.7732	-6.9347
20.6998	-7.2957
21.6902	-7.38691
19.7731	-6.93467
20.7678	-7.00815
21.6902	-7.38691
21.7385	-4.49323
21.804	-3.49384
21.8695	-2.49444
21.8695	-2.49444
21.9348	-1.49654
21.8695	-2.49436
21.8695	-2.49444
22.2935	-3.40159
22.3819	-4.39962
21.8695	-2.49436
21.9904	-3.4833
22.3819	-4.39962
21.8695	-2.49436
22.5367	-1.74956
21.8695	-2.49441
23.6246	0.901146
23.1565	1.78523
22.6885	2.66931
23.6246	0.901146
23.4001	-0.0708507
23.1756	-1.04285
11.912	-18.9744
12.1467	-18.004
12.571	-17.1003
12.571	-17.1003
13.2584	-16.3784
13.7491	-17.248
12.571	-17.1003
12.7555	-18.0808
12.9401	-19.0613
13.7491	-17.248
14.7306	-17.0508
15.7121	-16.8535
17.7239	-16.7527
16.7736	-16.4537
17.7665	-16.3139
17.7665	-16.3139
18.6282	-15.8183
18.7889	-14.8364
17.7665	-16.3139
18.7127	-16.6516
17.724	-16.7528
17.7665	-16.3139
18.7647	-16.3734
19.7361	-16.6107
18.7889	-14.8364
19.0944	-13.8849
19.4761	-12.9614
18.7889	-14.8364
19.2654	-15.722
19.7361	-16.6107
19.4761	-12.9614
19.5816	-13.959
19.5855	-14.9621
19.4761	-12.9614
20.368	-13.4207
21.2599	-13.8801
21.2598	-13.8801
21.2069	-12.8815
21.2599	-13.8801
19.7277	-12.0495
20.2245	-11.1816
20.7212	-10.3137
20.7212	-10.3137
21.2844	-9.49104
21.561	-10.4493
20.3458	-8.85869
21.018	-8.1228
21.6902	-7.38691
20.3458	-8.85869
20.912	-9.68556
21.561	-10.4493
21.6902	-7.38691
22.3906	-8.10407
22.8935	-8.97131
22.2968	-8.8021
21.7054	-7.99572
21.1141	-7.18934
22.2968	-8.8021
22.6995	-7.88674
23.1022	-6.97139
21.1141	-7.18934
22.1081	-7.08032
23.1021	-6.97131
21.1141	-7.18934
22.0202	-6.7663
22.9263	-6.34326
22.3819	-4.39962
21.9707	-3.48851
21.8695	-2.49441
21.8695	-2.49441
22.3689	-1.63074
23.1756	-1.04285
12.9401	-19.0613
13.2223	-18.0999
13.7492	-17.248
13.7492	-17.248
14.7108	-16.9528
15.7121	-16.8535
15.7121	-16.8535
16.7179	-16.8
17.724	-16.7528
17.724	-16.7528
18.7302	-16.6843
19.7361	-16.6107
17.724	-16.7528
18.5209	-17.3746
19.3178	-17.9963
19.7361	-16.6107
20.182	-17.5012
19.3178	-17.9963
19.7361	-16.6107
20.5475	-17.2174
21.3228	-17.8697
19.5855	-14.9621
20.4227	-14.4211
21.2599	-13.8801
19.5855	-14.9621
20.4662	-15.4414
21.3661	-15.8837
21.2599	-13.8801
21.313	-14.8819
21.3661	-15.8837
20.3418	-12.0338
19.7587	-12.8461
20.3418	-12.0337
20.3418	-12.0338
20.6879	-12.9723
21.034	-13.9109
20.3418	-12.0337
20.9251	-11.2212
21.561	-10.4493
21.561	-10.4493
22.2952	-9.7714
22.8935	-8.97131
21.561	-10.4493
22.4893	-10.8373
23.4937	-10.9008
22.8935	-8.97131
23.0577	-7.97765
23.1022	-6.97139
22.8935	-8.97131
23.163	-9.9456
23.4937	-10.9008
23.1022	-6.97139
23.933	-7.53293
24.7638	-8.09448
23.1021	-6.97131
23.9237	-6.4026
22.9263	-6.3432
22.9263	-6.34326
22.6541	-5.37148
22.382	-4.39971
19.3178	-17.9963
20.3271	-18.0371
21.3228	-17.8697
21.3228	-17.8697
21.4962	-16.8802
21.3661	-15.8837
21.3228	-17.8697
22.1587	-18.4649
23	-19.0526
21.3661	-15.8837
21.2071	-14.8961
21.034	-13.9109
21.3661	-15.8837
22.308	-16.222
23.2658	-16.5125
21.034	-13.9109
20.8609	-12.9259
20.6878	-11.941
24.3785	-12.6712
23.7862	-11.8605
23.4937	-10.9008
24.3785	-12.6712
25.1893	-13.2638
26	-13.8564
23.4937	-10.9008
24.3644	-10.4199
25.2657	-9.99857
23.4937	-10.9008
24.2992	-11.5082
25.1765	-12.0068
23.4937	-10.9008
24.4278	-10.5444
25.2657	-9.99865
25.2657	-9.99857
25.1953	-8.99932
24.7638	-8.09448
23.2658	-16.5125
24.1664	-16.076
25.0111	-15.5395
25.0111	-15.5395
25.6947	-14.8089
26	-13.8564
26	-13.8564
25.6088	-12.9225
25.1765	-12.0068
25.1765	-12.0068
25.1647	-11.0003
25.2657	-9.99865
