2184
-18.4409	7.21938
-16.8303	8.41047
-17.1728	11.9317
-16.3643	13.7394
-18.5017	-2.48921
-18.0406	-0.547034
-18.3953	1.42012
-18.9114	3.35864
-19.0955	5.35583
-16.8303	8.4105
-16.8302	8.4105
-17.1728	11.9317
-16.3643	13.7394
-15.5023	15.6403
-14.6292	17.4497
-18.5718	-2.36006
-20.3369	1.20255
-16.5846	-1.92365
-15.3705	-0.391626
-16.4339	1.25833
-17.2992	4.52876
-17.4882	6.53054
-16.8302	8.41045
-16.0963	10.2718
-15.2045	12.2473
-14.3767	13.9875
-13.5082	15.7934
-12.5718	17.6338
-11.769	19.4658
-15.9751	-5.12891
-18.5718	-2.36011
-19.3946	-0.547914
-18.3375	1.15694
-14.4419	1.31222
-14.4313	1.29412
-15.9327	3.0694
-15.3455	4.91247
-15.6076	6.87074
-14.8559	8.70881
-14.1164	10.5698
-13.2134	12.3573
-12.3833	14.143
-11.5263	16.0865
-10.5844	17.8547
-6.76462	18.8497
-6.7646	18.8496
-19.4101	-5.08892
-15.7502	-4.59879
-17.6807	-4.08438
-18.5717	-2.36017
-17.5312	-0.666914
-16.3338	1.07527
-12.4286	1.32974
-13.4607	3.04285
-14.2376	3.26958
-14.4482	5.25937
-13.7219	7.22082
-12.8617	9.0123
-12.0048	10.7634
-11.2227	12.5164
-10.4046	14.4282
-9.5274	16.1602
-8.61855	18.2406
-6.20603	16.9257
-5.92285	19.3316
-4.08918	20.1302
-17.6808	-4.08429
-16.2613	-2.73816
-17.6807	-4.08432
-16.5736	-2.42358
-15.5426	-0.715574
-14.3553	0.870258
-12.4285	1.32974
-12.4222	2.46996
-12.6297	4.45779
-11.8278	6.60163
-11.7375	7.34602
-10.8873	9.14259
-10.0114	10.9265
-9.2456	12.797
-8.407	14.5062
-8.11397	16.3942
-6.20598	16.9257
-4.485	17.9396
-4.08641	20.1075
-2.09191	20.0258
-20.4475	-8.78777
-19.4778	-7.05104
-19.4289	-5.05546
-17.6807	-4.0843
-17.6806	-4.0843
-15.9813	-5.12405
-14.3694	-2.33534
-13.5595	-0.962155
-12.4285	1.32972
-10.51	1.90036
-10.807	3.64624
-10.1553	5.54501
-10.1553	5.54508
-9.7386	7.50766
-8.88388	9.26184
-8.04348	11.2124
-7.25381	13.0477
-6.70196	14.979
-6.206	16.9256
-4.22509	16.6439
-3.16175	18.3369
-2.09187	20.0258
-0.994354	21.6949
-0.142924	23.5024
-20.4476	-8.78776
-20.4476	-8.78775
-19.4777	-7.05107
-17.7252	-6.08497
-15.9868	-5.10253
-14.2816	-4.063
-13.173	-2.40025
-16.3477	-2.62942
-11.6205	-0.504055
-10.5101	1.90035
-8.68592	2.69002
-8.85208	4.03285
-8.22279	5.92675
-8.25728	6.16253
-7.60307	7.72035
-6.89693	9.59129
-6.06446	11.4248
-5.29714	13.4524
-4.76562	14.9399
-2.78996	15.2509
-2.22517	16.5724
-2.22512	16.5724
-0.0949994	19.9077
0.754807	21.7216
0.988242	23.816
-17.1599	-11.9372
-17.1599	-11.9372
-18.7895	-9.90565
-17.381	-8.48613
-15.982	-7.06952
-15.3751	-5.17707
-14.2816	-4.06302
-12.2806	-4.18749
-11.2118	-2.46449
-11.6303	-0.510054
-8.9098	0.705072
-10.4825	1.94466
-6.91927	4.4074
-7.01588	4.38319
-6.26029	6.23186
-5.56191	8.10317
-4.85771	9.97246
-4.10614	11.8482
-3.30376	13.5749
-1.2936	13.2397
-0.79591	15.1768
-0.298029	17.1156
1.20927	18.4352
2.39134	20.5867
2.56131	22.581
2.84365	24.5627
-15.985	-13.5657
-19.1088	-12.3145
-17.1599	-11.9371
-16.3297	-10.1319
-15.3778	-8.38458
-14.9598	-7.13381
-15.3752	-5.17711
-12.2805	-4.18754
-12.9997	-2.33869
-11.2118	-2.46454
-9.73599	-1.10245
-8.57298	1.37463
-7.67982	2.97867
-5.68109	2.89844
-4.96398	4.70157
-4.27888	6.57032
-3.59019	8.44087
-2.88754	10.2841
-1.30898	13.4503
0.312636	14.5696
0.666099	16.5232
1.20927	18.4352
1.72228	20.3627
3.70682	22.7671
3.7068	22.7671
5.41981	21.7348
-14.8191	-15.1813
-14.8191	-15.1813
-17.9053	-13.7824
-14.3932	-10.1299
-14.3933	-10.1298
-14.3394	-9.01876
-13.4727	-5.78729
-13.4727	-5.78724
-12.2805	-4.18761
-11.2118	-2.4646
-11.2118	-2.46455
-7.95906	-0.161047
-6.5688	1.31397
-5.84896	3.19055
-5.80597	5.19147
-5.74992	5.325
-4.19108	6.56064
-3.59014	8.44091
-0.0361528	10.6308
0.429563	12.5747
0.429513	12.5747
0.312676	14.5695
0.66562	16.5288
0.996789	18.5062
1.72226	20.3626
3.6645	20.7763
3.66453	20.7761
-14.8191	-15.1813
-15.6177	-17.0125
-16.7533	-15.3662
-16.7533	-15.3663
-15.6179	-17.0128
-12.4572	-9.64761
-12.8498	-7.69389
-11.7916	-6.13572
-11.7915	-6.1357
-10.7382	-4.4342
-9.59134	-3.49751
-9.44724	-1.50233
-6.51294	1.22444
-4.57538	1.65438
-4.57535	1.65445
-4.79758	3.61131
-4.19102	6.56061
-2.62779	7.80702
-0.99299	8.87066
-0.0361281	10.6309
0.429598	12.5748
0.42966	12.5748
0.312658	14.5695
0.66591	16.5299
1.10732	18.4338
3.05706	18.8833
3.66452	20.7762
3.66459	20.7761
2.92748	22.6352
-13.9944	-17.0137
-14.7965	-15.1865
-16.215	-17.291
-10.4924	-10.0211
-12.9899	-9.98774
-12.2825	-8.09378
-10.5248	-7.13071
-9.35674	-5.87249
-7.88288	-4.51379
-7.78772	-2.70561
-4.84602	-0.583828
-4.45413	1.35158
-2.58262	1.98781
-2.99747	2.84882
-3.2164	4.83995
-2.37879	7.41157
-0.992966	8.8706
-0.992933	8.87065
1.87571	11.2257
2.04497	13.6303
2.04502	13.6303
2.04508	13.6304
2.44153	15.5972
2.8923	17.5484
5.62881	20.3957
4.90572	22.3408
-13.156	-18.8349
-12.9424	-20.828
-15.1545	-18.9045
-14.2255	-17.1553
-15.0219	-15.5618
-13.6838	-11.8623
-12.9899	-9.98778
-10.6896	-7.56552
-8.69905	-7.75955
-7.39772	-6.2627
-6.43164	-4.17167
-5.85657	-2.25296
-4.84598	-0.583878
-2.95926	0.0275546
-2.58253	1.9878
-1.05366	3.28517
-1.28396	5.27168
-0.508179	6.73213
0.872613	8.18603
2.49705	9.35283
3.54121	11.04
3.93979	12.9964
3.93975	12.9964
3.94817	14.271
4.33492	16.1754
6.16963	16.885
5.62886	20.3957
6.89408	22.1137
6.77847	24.1103
-14.3625	-21.3502
-13.156	-18.8349
-13.1683	-18.8454
-14.2256	-17.1553
-13.0135	-15.6289
-14	-13.8564
-12.1317	-13.118
-11.4335	-11.2438
-8.16067	-9.68572
-8.699	-7.75952
-6.08222	-4.85627
-4.52379	-3.58124
-3.53673	-2.06908
-3.6571	-0.0743941
-2.91224	0.0357648
-1.35086	1.28174
0.545806	4.50557
0.545901	4.50559
1.44015	6.29003
2.69868	7.36987
4.54333	8.13515
5.55361	9.89571
3.93979	12.9963
5.9065	13.0555
5.86426	14.9135
6.1696	16.8849
6.80907	18.7808
7.62838	20.405
8.88309	21.8921
10.8539	21.5985
-12.4673	-20.7115
-11.1941	-19.2316
-12.299	-17.6356
-12.4055	-17.5371
-13.0134	-15.6289
-11.1765	-14.7966
-12.1317	-13.118
-8.13591	-10.0393
-6.86203	-8.52524
-7.14881	-6.55506
-6.08228	-4.85632
-4.52381	-3.58118
-3.53668	-2.06902
-2.2065	-0.55856
-1.35167	1.27807
0.176105	2.58209
1.8506	3.67888
2.55682	4.63192
3.42501	6.45317
4.54108	8.12886
6.49908	10.1647
4.9986	11.3225
5.90645	13.0556
7.66162	14.0268
7.4177	15.3224
8.15396	17.3001
9.09648	19.0621
9.60277	20.0343
10.8539	21.5984
-11.6553	-22.5342
-11.194	-19.2317
-9.19748	-19.4511
-10.8923	-19.0099
-11.8114	-17.2489
-10.8973	-15.5265
-9.53595	-13.6087
-9.31591	-11.6256
-8.04173	-10.1367
-6.86197	-8.52529
-5.71932	-6.88345
-4.20784	-5.54851
-2.93465	-3.97627
-1.58226	-2.47494
-0.312982	-1.16309
0.509913	0.650258
2.19997	1.71333
3.72375	3.00039
4.53081	4.82148
5.42188	6.31932
5.8485	8.27443
6.50258	10.1666
6.8147	12.1703
7.66169	14.0268
7.39194	15.9907
9.37809	15.7174
10.1269	17.3535
11.0474	18.6451
9.6028	20.0343
9.27089	22.0066
-10.9665	-22.9762
-10.3727	-21.0623
-10.3727	-21.0623
-9.19741	-19.4511
-8.99994	-19.0526
-10	-17.3205
-9.22285	-15.4664
-8.68079	-13.5147
-7.35412	-11.9738
-6.06674	-10.3976
-4.95541	-8.70559
-4	-6.9282
-2.25802	-5.8838
-0.970668	-4.36049
0.426645	-2.56726
1.6718	-0.909166
3.65506	-0.75881
4.12166	1.16271
5.12544	2.90771
5.42192	6.31924
5.42188	6.31937
5.84845	8.27441
8.36304	10.9101
8.60566	12.899
9	15.5885
9.37805	15.7173
11.384	15.8068
11.3882	15.8068
12.909	17.9053
14.8309	17.4213
16.7955	17.0466
-9.07197	-22.5717
-9.07204	-22.5717
-8.38838	-21.2836
-7.25525	-19.9808
-9	-19.0526
-8.52556	-17.3363
-7.32888	-15.7454
-6.70044	-13.8556
-5	-12.1244
-4.06875	-10.3458
-2.98131	-8.65856
0.520055	-6.97887
-0.351867	-5.18937
0.796307	-3.53916
2.30289	-2.25604
3.65614	-0.789931
5.56926	-0.198288
5.12548	2.90774
6.78343	4.04234
7.39303	5.95861
7.8141	7.91367
8.41536	9.82195
10.2827	11.8385
10.0423	13.8363
9.70176	15.7752
11.3841	15.8068
12.6883	14.333
13.3971	15.9635
14.8309	17.4214
16.7955	17.0467
-9.07189	-22.5717
-8.42731	-21.8251
-6.4383	-21.7445
-5.53126	-19.9565
-7.02847	-18.6449
-7.02842	-18.6448
-5.21041	-15.1846
-4.03394	-13.5686
-2.99498	-11.8705
-1.83264	-10.2273
-0.682036	-8.57614
0.520133	-6.97887
1.65457	-5.32906
0.803474	-3.53747
3.65448	-0.793806
4.79542	0.48217
6.46223	1.59918
6.78069	4.03383
8.72534	4.51112
9.34516	6.41267
9.75836	8.37041
10.4134	9.81803
10.2827	11.8386
11.8354	12.9219
12.9512	14.5584
13.3559	16.2187
13.5113	15.9264
13.5112	15.9264
15.4819	15.5385
-8.28083	-25.2887
-7.35707	-23.5153
-6.42942	-21.7636
-4.46192	-21.6408
-5.53116	-19.9565
-5.53589	-19.9609
-5.12121	-18.0192
-3.20706	-15.1986
-2.02286	-13.584
-0.778633	-12.043
0.167285	-10.2798
1.45115	-8.74824
2.41805	-6.34806
3.41519	-4.33292
2.55515	-2.50867
7.3465	-1.32549
7.75735	0.631855
8.16852	2.58911
8.16858	2.58918
8.7254	4.51118
9.34522	6.41273
10.7314	7.86805
11.4881	9.96433
12.2344	12.3049
13.8474	12.8153
15.039	15.1352
15.1024	17.1191
13.5113	15.9264
15.457	15.4897
16.8254	14.0594
-6.28313	-25.203
-5.37204	-23.4231
-4.462	-21.6408
-5.52865	-19.9541
-3.95824	-18.7228
-3.9583	-18.7228
-1.22984	-15.4634
-0.0726342	-13.9919
-2.02278	-13.584
1.21707	-11.8391
2.52955	-10.3247
3.33703	-8.12443
4.66117	-6.62554
5.42337	-4.07461
4.27976	-1.49589
6.04951	-0.404996
8	0
9.5957	1.18236
10.1107	3.09183
10.1106	3.09183
12.0485	6.3461
13.1381	8.87675
13.2561	10.8842
14.2091	12.6568
15.4161	14.3047
17	15.5885
15.3552	15.1306
16.4005	13.4379
17.4285	15.1533
-5.37197	-23.4231
-4.5957	-21.684
-5.25651	-19.8047
-3.9582	-18.7229
-2.49201	-17.3494
-0.490745	-17.1723
0.753322	-15.7234
-0.541602	-14.192
-0.582257	-12.2092
3.84188	-8.81026
5.15929	-7.3002
6.48242	-5.79908
6.71278	-2.52044
7.14261	-1.87864
8.01756	-0.0454971
9.5957	1.18229
11.497	1.67555
10.1108	3.0918
13.4817	4.92949
13.0028	6.87338
15.1465	8.91814
15.1929	10.9189
16.206	12.5785
16.6853	13.6112
16.6852	13.6112
16.4004	13.4379
18.3244	13.9473
-3.68852	-24.5023
-3.57645	-22.5051
-3.34202	-20.3214
-3.85825	-18.4569
-1.9409	-18.6702
0.0310483	-18.9314
1.47965	-17.5787
2.71454	-16.0177
1.43776	-14.5138
3.22038	-15.0309
4.70751	-9.65051
6.32688	-8.49272
7.03715	-6.62319
8.24399	-5.05585
8.52844	-3.31792
9.13968	-1.76622
9.99798	0.0169873
11.9798	-0.28312
13.0428	2.95843
13.4817	4.92934
13.4817	4.92943
14.851	6.93816
15.1466	8.91811
14.966	11.0195
16.869	11.6054
16.859	11.6202
17.8295	12.0444
17.8296	12.0444
19.7541	12.5998
-1.90349	-23.6011
-1.78656	-21.5758
-1.5367	-19.4852
0.00837706	-18.2227
1.9917	-18.6871
0.796357	-17.0836
4.72821	-15.8571
4.85558	-13.8612
4.76672	-13.7625
4.7585	-13.7526
6.52275	-10.4855
8.32878	-8.54382
9.03989	-6.88101
9.21246	-4.87476
9.6088	-2.90543
11.1315	-1.62605
11.9798	-0.283217
13.5015	1.0055
14.9817	2.56152
15.2788	4.04158
15.2789	4.04163
15.67	5.11879
16.716	7.66056
16.4032	9.644
15.2301	10.4584
17.2067	10.1798
19.1604	10.5662
-0.124774	-22.6874
0.0307228	-20.7052
0.257557	-18.7241
1.96874	-17.8096
3.0917	-17.0121
4.72828	-15.8572
6.05761	-14.4636
6.29656	-12.4743
6.29658	-12.4742
6.2966	-12.4742
8.82389	-9.74533
10.3274	-8.43779
11.0147	-6.57038
9.48792	-4.88889
11.0354	-3.61652
13.1009	-1.96758
13.8539	-0.964794
15.4403	0.611945
15.9097	2.59065
17.283	3.93621
17.2829	3.93629
17.3072	5.73655
16.7161	7.66054
16.7161	7.6606
16.716	7.66065
17.504	9.47876
19.1604	10.5662
-0.12477	-22.6874
0.0308197	-20.7052
1.83732	-19.8091
3.64964	-18.9312
5.28696	-17.7738
6.6764	-16.3662
7.89368	-13.672
9.54941	-12.048
11.1173	-10.813
10.2576	-11.1354
11.7691	-9.85823
12.2602	-7.92672
11.0147	-6.57043
11.459	-5.22081
13.0064	-3.96033
14.7952	-3.08141
15.7859	-1.36318
16.1357	0.59716
17.4252	1.292
18.5881	2.43618
18.5881	2.43624
14.9635	6.69092
16.6413	5.66345
18.3814	6.5815
18.4332	8.6972
18.4332	8.69726
3.4865	-26.1614
4.15552	-24.2766
4.2676	-20.8267
5.29466	-19.1041
6.70281	-16.4289
8.44803	-15.4359
9.86519	-14.0187
11.4272	-12.7479
11.4273	-12.7478
12.2644	-11.1028
13.6939	-9.3204
14.1492	-7.27362
16.1161	-7.57001
15.725	-5.60692
16.1682	-4.57672
18.1482	-2.66265
17.6723	-0.701724
17.6724	-0.701641
19.2641	0.525212
18.5881	2.43615
20.0259	3.42725
20.0143	5.42722
20.0835	7.56094
17.7078	6.83344
4.20844	-24.2963
5.2315	-22.5777
6.25507	-20.8589
7.16719	-18.3656
8.64322	-16.9965
10.3661	-15.9379
12.1652	-15.0392
13.1864	-13.3464
13.4381	-12.7262
14.6348	-11.1881
14.9756	-9.21195
16.116	-7.57006
16.1161	-7.56993
17.4683	-6.11346
16.9217	-4.24735
20	-3.4641
18.6613	-2.02855
20.3475	-1.1637
20.3475	-1.16371
21.693	1.41388
21.7638	2.43739
21.7521	4.43735
21.7393	6.43802
21.7264	8.43797
4.80379	-24.5315
8.10733	-20.1302
10.5885	-17.4722
12.291	-16.4365
14.3052	-18.1146
13.795	-16.1984
14.8082	-14.4779
15.4534	-13.0139
16.6252	-11.3725
16.9679	-9.38834
16.9679	-9.38825
16.6542	-7.4138
18.0641	-5.87809
20.0208	-5.46399
20.2974	-3.15377
20.2973	-3.15374
20.3476	-1.16378
22.2128	-0.511306
23.6246	0.901086
21.7521	4.4373
23.4782	5.4476
9.96154	-19.3951
10.5886	-17.4722
12.3351	-18.4385
16.2874	-18.129
15.7834	-16.2266
16.7964	-14.5423
17.4164	-12.66
18.6234	-11.1445
18.6627	-10.4313
18.7326	-10.3146
18.4135	-8.36289
19.7732	-6.9347
19.7731	-6.93467
21.7385	-4.49323
21.8695	-2.49444
21.8695	-2.49436
24.1443	-1.03019
23.6246	0.901146
22.6885	2.66931
11.912	-18.9744
12.571	-17.1003
13.7491	-17.248
17.7239	-16.7527
17.7665	-16.3139
18.7889	-14.8364
19.4761	-12.9614
21.2598	-13.8801
19.7277	-12.0495
20.7212	-10.3137
20.3458	-8.85869
21.6902	-7.38691
22.2968	-8.8021
21.1141	-7.18934
22.3819	-4.39962
21.8695	-2.49441
23.1756	-1.04285
12.9401	-19.0613
13.7492	-17.248
15.7121	-16.8535
17.724	-16.7528
19.7361	-16.6107
19.5855	-14.9621
21.2599	-13.8801
20.3418	-12.0338
20.3418	-12.0337
21.561	-10.4493
22.8935	-8.97131
23.1022	-6.97139
23.1021	-6.97131
22.9263	-6.34326
22.382	-4.39971
19.3178	-17.9963
21.3228	-17.8697
21.3661	-15.8837
21.034	-13.9109
20.6878	-11.941
24.3785	-12.6712
23.4937	-10.9008
25.2657	-9.99857
24.7638	-8.09448
22.9263	-6.3432
23	-19.0526
23.2658	-16.5125
25.0111	-15.5395
26	-13.8564
25.1765	-12.0068
25.2657	-9.99865
-17.6357	7.81497
-18.9316	6.34467
-17.6356	7.81498
-18.1559	11.7487
-16.9019	12.895
-17.3555	13.6069
-18.2064	-1.53346
-17.5432	-2.20634
-18.1541	0.448028
-17.3126	-1.23536
-18.6696	2.38505
-17.4292	1.15905
-19.0264	4.35512
-18.1508	4.00652
-18.2571	4.81345
-18.3226	5.98534
-17.1445	9.35985
-17.1593	7.47055
-16.7617	11.0195
-16.1926	12.1143
-15.3716	13.8723
-14.9421	14.8121
-14.5041	15.702
-14.0688	16.6215
-19.3698	-2.9628
-19.1159	-1.5139
-19.3372	1.17983
-15.8141	-1.28677
-15.7413	0.536728
-14.6918	0.344029
-15.4326	1.27627
-15.8614	2.07421
-17.436	5.52568
-16.5576	3.85385
-16.338	4.79996
-17.2335	7.49646
-16.5963	6.96783
-16.4562	9.33832
-16.112	7.72551
-15.843	8.559
-15.4222	9.53298
-15.1064	10.4208
-14.6775	11.3975
-14.2098	12.3181
-13.9425	14.8904
-13.8003	13.1686
-13.3796	14.0598
-12.948	14.9667
-12.518	15.9449
-12.1704	18.5498
-11.5765	17.73
-11.1654	18.6686
-16.8279	-4.60662
-18.866	0.30452
-18.9833	-1.45409
-18.4417	-0.259099
-17.9524	0.23704
-17.3349	1.13351
-15.4272	1.50786
-13.4353	1.32098
-13.4299	1.31195
-13.946	2.16851
-15.4164	3.92014
-15.5739	5.87871
-14.8886	4.0255
-15.3161	7.82418
-15.113	6.00375
-14.6196	6.80149
-14.4822	9.63774
-14.553	7.76309
-13.8591	8.86241
-13.6795	11.4709
-13.4903	9.79011
-12.6126	11.5577
-12.2166	12.4185
-11.8112	13.3238
-11.3945	14.2897
-11.0554	16.9706
-10.9673	15.2561
-10.5276	16.1437
-10.0504	17.0109
-9.59924	18.0363
-6.96848	19.8287
-7.76024	18.7529
-6.4853	17.8877
-18.5455	-4.5866
-16.7382	-4.42669
-16.7155	-4.34156
-15.7526	-3.59836
-18.3445	-3.33501
-16.8402	-3.54898
-18.5336	-3.56232
-18.159	-1.44762
-17.5727	-2.3919
-17.0631	-1.55105
-16.5385	-0.75462
-16.1311	0.0950928
-15.3496	0.924282
-12.9447	2.18628
-14.3429	4.26447
-13.375	2.76758
-13.4337	3.86373
-13.5756	4.77564
-13.292	8.11663
-12.7846	6.88167
-12.7347	7.3624
-12.2902	8.1855
-11.8788	9.14229
-11.0071	10.8325
-10.6117	11.7255
-10.2336	12.6531
-9.83369	13.6065
-9.40662	14.4876
-8.9754	15.3277
-8.64062	17.243
-5.34553	17.4327
-5.00602	19.7309
-5.20391	18.6356
-5.0344	19.7902
-3.09054	20.078
-17.1157	-3.25875
-17.1186	-3.25494
-17.1206	-3.25833
-16.831	-4.60426
-16.0466	-1.5765
-15.0502	0.153272
-14.9558	-1.52535
-14.5535	-0.859102
-13.4218	1.22507
-13.9574	-0.0459678
-13.3681	1.00012
-11.4654	1.60191
-12.526	3.46387
-11.4671	2.18181
-11.6544	3.11286
-11.7086	4.07395
-10.9257	6.17751
-11.3169	8.24644
-10.7368	7.41181
-10.4541	10.0369
-10.3443	8.30309
-9.88442	9.18266
-9.45049	10.0923
-9.02755	11.0703
-8.56722	13.5247
-8.63334	12.0132
-8.24869	12.9143
-8.53659	15.4936
-7.19331	16.7787
-5.31077	17.3736
-6.49534	17.8828
-5.2179	16.7681
-3.62406	19.2222
-3.08657	20.1304
-19.8691	-7.97151
-20.5286	-9.78448
-21.2768	-8.22889
-19.5341	-6.05108
-19.7272	-8.01945
-18.5537	-4.57185
-19.4533	-6.05326
-18.5821	-5.5786
-17.5958	-3.08791
-17.7834	-5.08277
-16.8993	-4.71549
-16.7535	-4.46042
-15.1315	-4.59352
-15.3585	-2.48238
-12.5729	-0.80571
-11.4692	1.61505
-11.9982	0.424433
-9.58032	2.2544
-10.4812	4.59563
-9.83805	3.88245
-9.47436	4.81423
-9.22221	5.90491
-9.95546	6.52818
-9.22194	5.90193
-9.4769	8.46545
-9.02017	6.81063
-8.25809	8.47896
-7.88879	9.4168
-7.62641	12.1205
-7.49698	10.3829
-7.05237	11.3038
-6.96261	14.009
-6.65913	12.2362
-6.27655	13.2553
-6.45223	15.9518
-3.69287	17.4901
-3.50752	15.9474
-3.22572	16.5917
-2.6327	19.1851
-2.69342	17.4546
-1.52712	20.8499
-1.09396	19.9579
-0.544936	22.5875
-0.55679	20.7952
0.235417	22.5764
-20.8446	-9.70559
-20.0507	-7.87017
-19.6186	-9.34669
-18.6311	-6.51435
-16.852	-5.60079
-16.8554	-6.58035
-15.1015	-4.63627
-15.8071	-6.08537
-13.6734	-3.26763
-15.2797	-4.00098
-13.7273	-3.23163
-12.7024	-3.28171
-11.3862	-1.47803
-9.59805	2.29526
-9.70997	1.30269
-8.75539	1.69274
-8.53747	4.97981
-7.91624	4.37931
-7.57103	5.16708
-7.46543	5.27565
-7.26037	6.24231
-7.26111	8.66002
-6.93119	6.97654
-6.48645	10.5106
-6.23678	8.84064
-5.08208	11.6216
-4.7279	12.6308
-4.30306	13.5562
-3.77779	15.0954
-4.03469	14.2574
-1.51053	15.8746
-1.26158	16.844
0.329915	20.8147
0.417499	19.0474
1.52363	21.083
1.65806	22.1513
1.77479	23.1985
1.91595	24.1894
-18.1355	-12.1569
-16.5724	-12.7514
-18.1644	-11.9725
-18.1343	-12.1259
-18.0956	-9.18559
-16.6279	-7.83066
-17.0268	-9.41883
-16.3794	-8.43536
-15.588	-6.1524
-15.1629	-6.15446
-13.2811	-4.12528
-11.683	-3.38568
-12.7924	-3.322
-11.421	-1.48727
-10.3339	-1.98569
-11.421	-1.4873
-10.7212	-0.928502
-9.69616	1.32487
-9.22406	-0.243883
-9.50782	1.7263
-6.13779	3.78654
-6.63238	5.30519
-6.34848	3.64082
-5.90703	7.166
-5.6085	5.46979
-5.21141	9.03842
-4.91326	7.34272
-4.57605	8.27204
-4.12686	9.2868
-3.87263	10.1283
-3.39208	11.1475
-2.3053	13.5297
-1.04474	14.2083
-0.546948	16.1462
-0.135651	15.9269
0.455625	17.7754
2.18007	18.6751
2.46752	21.5846
2.69386	23.573
3.34671	23.6992
-15.4021	-14.3735
-15.402	-14.3735
-18.1088	-12.2573
-18.7456	-13.243
-16.6325	-11.0864
-17.6445	-12.8147
-15.9582	-9.20118
-15.3615	-10.368
-14.4615	-7.99459
-14.8855	-9.25721
-15.2202	-6.16667
-14.7755	-8.11789
-14.253	-6.41999
-14.4239	-5.48218
-12.8766	-4.98739
-11.2824	-4.24961
-12.5812	-3.24024
-12.0755	-1.96163
-10.4739	-1.78349
-12.0897	-2.94334
-10.448	-1.81154
-8.80863	-0.705296
-8.46481	2.36577
-7.74901	0.812994
-7.57174	1.31591
-6.68172	2.90467
-7.12432	2.14632
-6.80738	3.4608
-5.10552	3.71319
-4.67104	5.65411
-3.92013	7.50029
-3.70209	7.44041
-3.08381	9.30364
-0.406434	13.8773
-0.336977	13.2156
0.595357	15.5271
0.883169	17.4947
0.415559	15.5597
1.6343	16.7752
1.48485	19.3939
0.7932	17.5234
1.05236	21.1051
2.85034	23.2833
4.5633	22.2509
3.78381	21.7696
3.7624	21.7699
4.54217	21.2555
-15.7933	-15.4069
-15.2184	-16.0969
-17.5057	-14.7026
-17.1889	-14.4721
-13.4253	-9.88872
-13.441	-9.46035
-13.5946	-8.35632
-13.1613	-6.74059
-12.529	-5.46491
-12.8599	-4.99982
-11.7416	-3.32894
-12.0325	-5.16076
-10.6893	-1.61192
-10.539	-3.19744
-10.3295	-1.98343
-7.24431	0.557986
-8.64955	-0.891033
-7.21352	0.508219
-6.15151	2.23024
-5.56967	1.46995
-5.70546	4.18855
-5.21217	2.42246
-5.27167	2.37284
-6.68801	5.66567
-4.87683	5.82442
-5.42565	4.38362
-3.75979	7.45888
-5.18736	6.47475
-3.39532	7.16613
0.196704	11.6028
-0.51457	9.75075
-0.991013	10.3338
0.317854	11.574
0.332219	13.5698
-0.243268	11.835
0.446308	15.5569
0.337592	13.5702
-0.476117	15.1842
0.8274	17.5181
-0.325258	16.6631
1.24514	19.4792
0.831353	17.518
2.66521	20.7009
2.38966	19.623
4.66168	20.8515
3.42154	19.8103
3.31769	19.8382
-14.4068	-16.0975
-16.1855	-16.1894
-15.2071	-16.0995
-17.3211	-14.543
-15.7587	-15.4551
-16.1856	-16.1895
-16.4953	-16.3318
-12.7405	-8.68816
-11.4748	-9.8344
-12.5867	-6.73446
-12.0269	-7.1173
-11.5166	-7.09093
-11.2649	-5.28494
-11.5191	-7.09256
-9.99421	-5.10226
-9.5193	-2.49992
-8.69259	-3.9309
-8.62938	-3.23914
-5.57315	1.57086
-3.75055	1.08901
-3.57929	1.8228
-4.8567	2.61333
-3.70408	2.1422
-3.97373	3.05031
-4.03577	4.2627
-3.44135	7.22392
-3.56157	5.7811
-3.32196	7.06522
-1.70953	8.18415
-1.92289	8.51225
-0.456285	9.71909
-1.47063	7.99208
-0.876118	9.8638
0.234143	11.5939
-0.494297	9.73978
0.919791	10.9283
1.23457	11.988
0.326017	13.5695
1.10055	13.3125
0.48073	15.5512
1.10072	13.9554
0.687556	17.5284
1.5381	16.0337
2.08184	18.66
1.99982	17.9911
3.49132	19.7876
3.29605	21.7057
4.6467	20.5859
4.23793	21.5959
3.91576	22.4824
-14.3955	-16.1001
-13.5752	-17.9243
-15.8947	-18.2361
-15.2134	-17.3222
-13.3625	-10.9155
-13.7681	-9.35976
-11.4037	-7.61224
-12.6272	-9.04414
-9.52864	-7.20452
-8.61981	-5.19314
-8.96848	-6.79527
-8.37723	-6.0676
-7.24173	-5.27806
-7.10969	-3.43865
-6.84498	-2.38209
-4.8076	0.415993
-5.53452	-1.30782
-3.56879	1.81735
-4.80285	0.414601
-3.70669	0.689568
-2.77096	1.00768
-3.10695	3.84438
-2.0016	2.79966
-2.03428	3.1055
-2.28253	5.20084
-1.68588	8.14109
-1.40916	7.16677
-0.304287	9.59571
-0.0171309	8.646
2.31831	10.3331
1.43159	14.4201
2.99238	13.3134
3.01325	13.376
2.23979	14.6145
2.99242	13.3134
3.01834	13.8859
2.66268	16.5738
3.19486	14.9341
3.42969	15.75
3.61681	16.8652
5.8993	22.222
-13.0492	-19.8315
-13.058	-19.837
-14.5812	-18.0876
-14.1586	-18.9761
-14.8214	-17.9599
-14.2266	-16.1605
-15.1958	-16.9134
-13.4547	-16.5232
-14.0177	-15.5954
-14.511	-14.7091
-13.3368	-10.925
-13.9051	-12.8494
-12.9078	-12.4901
-12.2117	-10.6158
-9.69433	-7.66253
-8.42988	-8.72264
-8.56871	-8.75101
-8.13507	-6.93622
-6.15091	-3.21027
-5.47772	-3.87646
-5.53094	-1.30936
-5.42333	-3.15031
-3.87131	-0.373873
-4.29877	-1.42095
-2.73293	1.00027
-1.80695	2.62342
-2.86834	1.03229
-1.0695	4.28976
-1.20227	2.28345
-0.222027	3.85349
-1.38362	6.26015
-0.310467	5.02795
-0.360863	4.90824
0.193487	7.44836
0.449723	6.43937
1.69136	8.76036
1.05543	7.20778
1.74925	7.69627
3.12169	10.1329
2.62091	8.36369
3.78844	12.0084
4.9282	12.8574
3.92115	15.2682
4.90409	14.5986
5.18966	16.6915
5.04641	15.48
5.54552	17.6663
6.20292	19.5765
6.62847	20.4331
6.83628	23.112
7.88914	22.0079
-13.4149	-21.0308
-12.5368	-19.6205
-12.8221	-19.777
-12.1779	-19.0476
-13.8022	-18.066
-12.1739	-19.0007
-13.2712	-17.8521
-13.7926	-16.2551
-13.2623	-17.3955
-13.2416	-16.992
-12.5711	-14.7321
-13.0659	-13.4872
-13.5506	-14.767
-11.4311	-13.8309
-11.7826	-12.1809
-8.42983	-8.72262
-7.77888	-8.1385
-8.04021	-7.00811
-5.31224	-4.20746
-7.01662	-4.49999
-3.68252	-3.05182
-3.56849	-3.28559
-3.55566	-1.06926
-4.50793	-1.83091
-3.63825	-1.07422
-2.13156	0.658763
-2.2013	0.744258
-1.49777	0.290694
0.0606043	3.6312
0.546859	3.50857
1.03061	5.37899
1.53471	4.6228
1.5535	4.53411
1.71286	7.24547
1.96797	5.44044
2.43485	6.34377
3.66178	7.6544
3.6618	7.64727
5.08377	8.99513
4.09943	9.02864
4.92906	12.8401
4.356	12.0876
6.24188	13.9916
6.80504	13.5032
5.92127	15.914
6.75244	14.4489
6.47581	17.8374
6.79364	16.1037
7.47871	18.0379
8.08596	21.2922
8.40777	19.7831
8.6195	20.2406
9.88529	21.8591
9.16784	20.934
9.87	21.7553
11.4786	22.3793
-11.6685	-20.1106
-12.0745	-21.6287
-11.5315	-18.2846
-10.1969	-19.3517
-13.0597	-18.289
-11.4905	-18.2146
-12.7335	-16.5906
-11.7084	-18.2461
-12.0952	-15.2123
-12.4193	-16.444
-11.4284	-13.8295
-11.8938	-15.4898
-10.3562	-14.2026
-7.38478	-9.37808
-8.84938	-10.7408
-6.9887	-7.53776
-7.40669	-9.36379
-7.84829	-8.69026
-6.68576	-5.66172
-6.28443	-6.064
-5.14873	-5.21236
-4.36583	-4.56484
-2.84576	-1.33652
-3.27181	-3.03404
-2.56669	-2.30682
-1.78772	0.363787
-1.89438	-1.51675
-1.28826	-0.950328
-0.62144	1.96946
-0.362593	1.13774
0.970035	3.19676
0.163832	1.58532
2.84585	3.6788
2.05841	2.702
2.78717	3.33964
2.92729	5.57279
3.14136	3.81692
3.55848	4.57748
3.97582	7.29583
4.08675	5.71104
4.42555	6.41773
4.98184	7.22426
5.55817	10.4973
6.15463	9.22613
5.2702	12.2842
5.92284	10.9682
5.88831	11.7857
8.56865	13.6057
8.3957	15.5308
8.62522	18.1811
8.77843	16.5183
9.1362	17.4917
9.65422	18.2335
10.0812	18.8969
10.289	19.3022
10.5815	19.8289
10.2284	20.8164
-11.1807	-21.6524
-10.1958	-19.3414
-10.8699	-20.186
-9.7851	-20.2567
-11.4645	-18.1881
-9.95351	-19.3422
-11.5419	-16.2885
-10.8902	-16.8682
-10.3662	-16.382
-9.42593	-12.6171
-9.68571	-14.589
-9.10736	-12.6066
-8.33501	-11.7997
-7.44082	-9.33904
-7.86951	-11.119
-7.05935	-10.3059
-6.31927	-7.68443
-6.47378	-9.46547
-5.88484	-8.36186
-4.96686	-6.21227
-5.2314	-7.75013
-4.87324	-7.40713
-3.56078	-4.77087
-3.25562	-5.84864
-2.28983	-3.1973
-1.95266	-4.16838
-0.668576	-2.08847
-0.578005	-2.52541
0.0132964	-0.217678
0.685299	-1.08242
1.31888	1.23899
0.918591	-0.257935
3.01846	2.28989
3.16082	1.43802
4.19989	3.87871
4.85301	3.87233
4.56865	5.81518
6.41704	6.22102
6.20635	9.20989
5.61761	7.30074
6.64751	11.1702
7.43281	10.5384
7.25923	13.089
7.58887	11.5402
7.79825	12.3191
7.4078	14.9928
8.33085	14.8076
8.39037	15.894
8.32984	16.3237
10.1424	16.3562
9.97743	14.9169
10.3768	15.8617
10.7412	16.5667
11.971	18.2569
9.43685	21.0204
-10.6696	-22.0193
-9.96771	-23.0133
-10.0764	-20.1072
-9.72235	-21.817
-9.61697	-21.7258
-9.39151	-21.2696
-8.7929	-20.3674
-8.22633	-19.7159
-9.59366	-16.4009
-9.52514	-18.201
-8.97453	-14.4842
-8.91998	-16.4185
-8.0377	-12.7268
-7.69062	-13.6851
-6.70326	-11.1916
-7.07175	-12.9302
-5.49596	-9.56154
-5.54295	-11.2669
-5.06711	-10.3962
-4.51262	-7.79808
-4.81271	-9.68841
-3.96532	-8.81251
-3.13732	-6.39218
-3.49065	-7.79338
-1.56049	-5.16771
-1.30614	-5.53329
1.41237	-2.69723
2.67409	-0.971513
2.58779	-1.30309
2.6612	-0.803586
4.02507	0.168405
4.64329	-0.584357
4.58289	2.05856
4.84545	0.482202
5.39721	1.94536
5.93239	3.50727
5.20866	5.34231
6.41532	6.18226
5.63517	7.29689
6.83128	8.09404
8.48435	11.9045
9.51863	12.4862
9.05032	13.7894
9.55149	14.7304
10.381	15.7621
10.3817	15.7472
12.3851	15.8515
10.5799	16.4011
11.9283	14.9737
11.8921	14.9405
12.3988	15.8049
13.2226	16.9518
13.9017	17.7884
15.8132	17.234
17.4523	17.8007
-8.81374	-23.5378
-8.94228	-21.5801
-9.32926	-21.6097
-7.4444	-20.9588
-7.41196	-21.5082
-8.07773	-19.4237
-6.63174	-20.7636
-9.19536	-18.0758
-8.02944	-18.7747
-7.87038	-16.5836
-7.8371	-18.0592
-7.86393	-18.0903
-6.95372	-14.8208
-6.00805	-14.579
-4.54437	-11.2298
-3.99749	-11.9974
-3.53467	-9.49594
-3.25504	-10.9132
-0.0315318	-6.14025
-0.162092	-7.71663
0.145932	-4.31133
0.0751143	-6.08852
0.650278	-5.27508
1.48991	-2.82754
1.22542	-4.43412
-0.0607362	-4.04755
1.65101	-3.01104
3.03836	-1.58015
4.6127	-0.494104
4.19558	0.0496224
6.04743	0.684625
5.95308	3.47079
7.09975	4.99681
6.08275	4.7529
7.74021	4.33532
7.60498	6.93583
8.1908	5.35567
8.38327	6.12449
8.09764	8.87319
8.78623	8.14204
9.19931	9.19995
9.41435	9.81999
10.1897	12.8407
10.4071	10.8322
9.31102	11.6021
9.70117	14.7761
10.2061	12.8427
10.9454	13.392
10.5323	16.3284
11.9098	14.9574
12.1903	15.211
12.3816	15.9576
13.4573	14.9668
13.0114	15.2797
13.4877	14.9282
13.1419	14.997
15.8132	17.234
14.171	16.6739
15.2339	16.5069
16.1387	16.2926
-8.31775	-23.2306
-7.8925	-22.6704
-7.42928	-21.7643
-5.8887	-20.8991
-7.32451	-22.2086
-5.44447	-21.801
-6.18892	-19.1973
-4.99659	-20.7987
-6.51579	-20.1314
-6.25854	-19.2764
-6.20011	-19.2096
-6.04644	-18.419
-4.60882	-14.3863
-4.20873	-15.1916
-3.51364	-12.72
-3.97316	-14.563
-3.0284	-13.5763
-2.41908	-11.0451
-2.65953	-12.8129
-1.25803	-9.40122
-0.83268	-10.2535
-0.0932991	-7.76821
-0.525879	-9.56146
1.16799	-6.20924
0.981831	-7.86556
1.46909	-6.66346
1.35876	-4.37186
2.54091	-4.8417
1.67923	-3.02293
3.84882	0.180078
3.10479	-1.65123
5.65089	1.00772
7.46095	1.58285
7.21799	2.26236
7.75302	4.27247
7.47524	3.31208
8.54321	3.5224
8.93305	5.49508
10.3031	6.69969
10.6316	8.84727
9.64748	7.3715
10.4357	8.82066
11.2576	12.0758
12.3212	13.7893
12.839	12.823
13.6468	15.2685
13.5725	13.7758
14.263	15.7793
14.1469	16.8297
14.2425	16.6085
14.4965	15.7325
14.4814	15.6961
16.0956	14.7463
-7.7964	-24.4137
-7.28198	-25.2459
-7.01264	-22.576
-6.82041	-24.3594
-6.3579	-23.6099
-5.45637	-21.5343
-5.74042	-22.4908
-5.43414	-21.8812
-3.92599	-22.485
-5.73427	-20.9384
-4.80076	-20.6397
-5.33597	-18.9885
-4.74706	-19.3419
-4.1626	-17.7476
-2.61496	-14.3913
-2.21586	-15.312
-1.04898	-13.7938
-0.332922	-11.1467
-1.52467	-12.7138
0.219219	-11.941
0.782143	-9.49131
0.969316	-10.8738
2.87754	-7.23625
2.98517	-3.4208
4.42193	-4.22406
3.41747	-2.0023
7.5519	-0.346813
7.96291	1.61049
6.90577	0.109607
8.89964	1.90363
8.45222	3.54866
9.13963	2.8405
8.97646	5.48118
9.31396	3.70022
10.0043	7.17277
11.353	7.07518
12.4021	9.55518
12.3455	10.4755
13.2165	12.5105
13.6146	11.8483
15.0707	16.1271
16.0195	15.3618
15.3145	16.136
14.5028	15.7908
14.4537	15.5758
16.233	14.8626
16.4414	15.3138
-5.82743	-24.3132
-4.91688	-22.532
-4.71993	-22.6719
-4.82888	-20.7097
-4.74344	-19.3385
-4.801	-19.2649
-3.17132	-18.1058
-3.22512	-18.0361
-0.532826	-16.1758
-0.238366	-15.5942
0.582105	-14.7419
-1.50946	-14.4376
-1.30251	-12.8966
1.87331	-11.0819
0.396724	-12.4055
3.18572	-9.5675
3.99908	-7.37497
4.24824	-7.7125
5.57179	-6.21229
5.9529	-4.93684
6.11613	-3.33749
7.03914	-0.271624
6.2824	-1.37316
7.03144	-0.213751
8.87564	0.486266
7.07613	-0.382687
8.79784	0.59116
9.98309	2.10195
10.5966	1.23461
10.2385	4.08363
12.7627	5.63543
13.1516	9.88316
13.1371	7.87069
14.1423	8.89744
13.6878	11.7945
14.2204	11.1251
14.7944	13.4941
14.829	11.8605
15.209	12.655
16.2331	14.9158
16.0879	13.5678
16.3797	14.559
16.0406	15.856
16.8006	14.6065
16.0485	14.3957
15.7832	14.2259
16.9145	14.2956
15.6091	14.0493
17.3313	13.8109
-4.71748	-22.6721
-4.53025	-23.9627
-4.47378	-22.965
-4.96424	-20.7576
-4.23669	-20.7564
-4.94575	-18.859
-4.27164	-19.9609
-4.72172	-18.9609
-2.95094	-18.6452
-1.48636	-17.317
-2.85666	-18.2784
0.358957	-16.643
-0.601569	-18.1629
0.494453	-17.3755
0.144713	-14.9251
1.06716	-16.6704
1.73726	-15.8483
-0.695121	-13.2035
0.448077	-14.3529
4.50005	-8.05477
5.82023	-6.54909
6.0712	-6.88659
7.55614	-0.950618
7.87319	-2.56198
8.14162	-1.83085
8.73832	0.65625
9.005	0.0736009
10.5915	1.25686
10.9201	2.497
11.7384	0.696215
12.2371	2.35664
14.1952	4.22881
13.1317	5.87408
13.9145	7.27808
15.1182	9.91972
15.5194	11.8585
15.2312	9.91711
15.677	11.7268
16.7857	12.6091
16.8159	12.6195
17.3624	13.6926
17.1955	12.8235
17.0931	12.7187
17.9039	13.0406
19.1649	13.4072
-3.63249	-23.5037
-2.79548	-24.0528
-2.73998	-23.0531
-2.68255	-22.0385
-3.84489	-19.4563
-2.53884	-20.917
-2.42206	-19.9406
-2.87141	-18.3048
-0.97169	-18.9282
-0.946822	-18.5315
0.843624	-18.3499
1.03127	-18.9709
0.413698	-18.0075
2.19953	-16.8789
2.21062	-15.152
3.72137	-15.9374
3.99355	-14.3967
3.98944	-14.3917
5.57615	-9.15393
5.61513	-10.068
6.72311	-7.57363
6.45529	-9.48612
7.32763	-8.52606
7.55893	-5.77675
8.04034	-6.73782
8.84091	-4.26158
8.58184	-5.99466
8.3309	-2.34465
9.6844	-0.930346
10.098	-2.03631
10.1336	-1.6674
10.6383	-0.753919
10.9941	-0.0989596
12.6701	0.444702
13.2623	3.94388
13.2788	1.98354
14.0419	2.90588
13.6991	5.90548
14.3463	4.41708
14.3532	4.43051
14.9988	7.92814
15.2328	6.01594
15.9313	8.28934
15.9175	11.3125
15.7636	10.4141
16.6686	10.617
16.0496	11.0319
16.0446	11.0393
16.8688	11.7671
17.693	11.054
18.7918	12.3221
18.4027	11.2224
-1.0136	-23.1453
-0.970094	-22.1532
-0.879377	-21.1374
-0.764157	-18.8539
-0.671078	-19.9902
-0.719451	-18.9157
0.98856	-18.0161
1.39402	-17.8854
2.5417	-17.8496
4.79189	-14.8592
5.2171	-14.9926
5.57608	-13.1677
5.53165	-13.1183
5.52755	-13.1134
5.52756	-13.1134
6.44144	-11.4834
9.32991	-8.52529
9.12098	-5.87744
9.66261	-7.67678
10.0356	-6.77888
9.34304	-3.87643
10.2988	-2.18093
9.44662	-3.89089
11.1812	-2.62592
12.13	-1.71729
12.7406	0.361146
12.5782	-1.10027
12.9289	-0.590856
13.6862	0.0218756
14.5002	0.953929
15.2195	1.58873
14.9309	4.97912
16.1467	3.55722
16.2809	3.98892
16.2829	4.02607
16.4903	4.54649
16.6563	4.98024
16.5596	8.65228
17.0116	6.69856
16.5457	8.65007
16.2107	10.2641
18.1968	10.3057
19.8521	11.2885
-0.016944	-21.6987
0.764235	-22.2295
0.0401648	-19.7026
0.0807384	-21.7061
1.0037	-18.0627
0.144178	-19.7146
1.20133	-19.0421
1.90303	-18.8094
3.91	-16.4347
3.37228	-17.9712
5.00761	-16.8155
5.68458	-16.18
6.17709	-13.4689
6.367	-15.4149
6.94209	-13.9898
6.41582	-11.4814
7.12557	-13.0326
6.17734	-13.467
9.63042	-9.15447
9.57064	-10.4095
10.7566	-7.53563
11.0435	-9.15282
11.3056	-8.22695
11.9928	-6.36224
10.2617	-4.25271
10.4735	-5.05487
12.0209	-3.78843
13.1485	-2.96837
13.9627	-2.5022
14.7893	-1.31308
15.6207	-0.374279
15.9745	1.58846
16.6215	1.88769
18.0118	3.25259
18.0282	3.26709
17.0116	6.69855
15.8398	7.17573
16.6787	6.66199
16.43	6.70243
16.6787	6.66203
17.4556	6.97725
17.0015	8.61683
17.5693	7.15281
17.5746	8.17893
18.2672	10.1213
18.7968	9.63173
-0.179837	-21.6856
0.901647	-20.192
2.75242	-19.3886
4.4857	-18.3771
3.92069	-19.8913
4.41428	-19.5665
6.04786	-17.1353
5.85014	-16.9486
7.56636	-15.9089
8.52535	-14.4428
8.8918	-13.7747
10.3334	-11.4305
9.7183	-13.0316
10.4883	-12.398
11.0699	-11.8132
11.098	-10.5968
10.8194	-11.9584
11.261	-11.1191
12.1024	-8.91485
12.757	-9.68008
12.977	-8.62357
13.1889	-7.55442
12.1958	-4.5452
13.9254	-3.57086
15.4069	-2.28947
15.4838	-3.82713
15.9752	-0.385581
16.7153	-0.992816
16.4595	1.53719
16.904	-0.0522406
18.4068	1.45639
17.5583	0.296363
18.3668	0.961614
18.926	1.48069
19.5151	2.81127
15.7106	6.02695
17.5932	5.96689
19.1903	5.99363
19.3251	6.90971
19.2578	8.12825
18.0706	7.76535
3.82101	-25.219
3.84747	-25.2288
4.78113	-19.9654
4.72328	-21.7167
5.25999	-20.928
5.77485	-19.9815
6.22617	-18.7228
6.8784	-17.4108
7.69132	-16.6498
9.14595	-14.7167
7.94073	-16.2936
9.44121	-15.5558
10.6397	-13.3754
9.97959	-15.0141
12.1926	-13.3823
12.4334	-12.8175
12.8512	-11.9145
14.2706	-8.50996
15.1326	-7.42184
15.1548	-7.27553
15.6467	-8.45303
16.1936	-8.56696
15.8912	-6.59428
16.484	-6.24784
16.8218	-5.34214
17.9103	-1.68219
17.4494	-3.38903
19.0741	-3.06338
18.6113	-1.03271
18.4682	-0.0882133
17.7253	-1.69394
19.8435	-0.295131
19.8627	-0.282652
20.0201	4.42724
20.8949	2.93232
20.889	3.93229
20.8749	4.91777
20.8768	5.93262
20.9108	6.99851
4.71995	-23.437
5.74327	-21.7183
5.01765	-23.5546
7.20726	-20.5609
7.89144	-17.6662
7.60422	-19.2655
9.49139	-16.4456
9.59803	-17.307
11.2809	-15.519
11.2955	-16.3141
12.8344	-14.2882
12.9359	-15.6811
12.4426	-12.6788
13.9216	-14.0209
14.2153	-12.0966
14.4455	-12.8714
14.7917	-10.1977
14.9978	-12.1217
15.6266	-11.3165
15.4888	-8.35147
15.9676	-9.34549
16.5698	-8.46604
16.8859	-6.92841
16.4761	-8.51002
17.4107	-5.11752
17.3822	-5.13998
19.1836	-2.88295
20.0104	-4.46405
19.3599	-1.31575
19.5264	-2.52272
21.3359	-1.01151
20.294	-2.15807
21.3085	-0.887087
19.5947	-0.505535
22.0315	0.472456
22.6588	1.15749
21.758	3.43737
21.7458	5.43768
22.6292	3.95699
22.6152	4.94247
21.7329	7.438
9.01961	-19.7253
11.4398	-16.9544
9.60569	-17.6566
12.313	-17.4375
13.9167	-17.1918
13.3201	-18.2766
15.2955	-18.253
14.3149	-15.3459
14.7877	-16.3099
14.594	-13.5087
15.2173	-15.3961
15.7998	-14.5837
16.0974	-12.2347
16.1255	-13.7776
16.4467	-12.9025
16.8378	-10.3876
17.6267	-11.2796
17.8676	-9.82468
16.8111	-8.40103
17.7629	-9.99472
17.7931	-9.96017
17.5158	-7.92188
19.0424	-5.67104
18.906	-6.42695
20.4046	-4.14799
20.1896	-2.1552
20.8992	-3.95087
20.8845	-2.34678
21.2355	-0.710946
21.1085	-1.82911
22.9823	0.131212
22.0474	-1.5039
23.1786	-0.770744
23.8845	-0.0645511
22.2203	3.55331
10.9303	-19.1547
11.4618	-17.9554
11.2503	-18.2233
11.5798	-17.2863
15.8758	-17.2199
17.0831	-17.5218
16.1591	-15.306
16.7343	-16.5606
16.7771	-16.22
17.1837	-13.6267
17.2463	-15.4474
17.7958	-14.668
17.8446	-11.7628
19.0906	-12.0338
18.427	-9.36248
19.2301	-11.1821
19.7271	-10.4601
18.9758	-7.53709
19.3677	-8.6572
20.0192	-7.90872
20.6998	-7.2957
20.7678	-7.00815
21.804	-3.49384
21.9348	-1.49654
22.2935	-3.40159
21.9904	-3.4833
22.5367	-1.74956
23.1565	1.78523
23.4001	-0.0708507
12.1467	-18.004
13.2584	-16.3784
12.7555	-18.0808
14.7306	-17.0508
16.7736	-16.4537
18.6282	-15.8183
18.7127	-16.6516
18.7647	-16.3734
19.0944	-13.8849
19.2654	-15.722
19.5816	-13.959
20.368	-13.4207
21.2069	-12.8815
20.2245	-11.1816
21.2844	-9.49104
21.018	-8.1228
20.912	-9.68556
22.3906	-8.10407
21.7054	-7.99572
22.6995	-7.88674
22.1081	-7.08032
22.0202	-6.7663
21.9707	-3.48851
22.3689	-1.63074
13.2223	-18.0999
14.7108	-16.9528
16.7179	-16.8
18.7302	-16.6843
18.5209	-17.3746
20.182	-17.5012
20.5475	-17.2174
20.4227	-14.4211
20.4662	-15.4414
21.313	-14.8819
19.7587	-12.8461
20.6879	-12.9723
20.9251	-11.2212
22.2952	-9.7714
22.4893	-10.8373
23.0577	-7.97765
23.163	-9.9456
23.933	-7.53293
23.9237	-6.4026
22.6541	-5.37148
20.3271	-18.0371
21.4962	-16.8802
22.1587	-18.4649
21.2071	-14.8961
22.308	-16.222
20.8609	-12.9259
23.7862	-11.8605
25.1893	-13.2638
24.3644	-10.4199
24.2992	-11.5082
24.4278	-10.5444
25.1953	-8.99932
24.1664	-16.076
25.6947	-14.8089
25.6088	-12.9225
25.1647	-11.0003
