-18.7662	5.51905
-31.1421	12.7245
-18.3672	7.48456
-18.7662	5.51905
-31.615	11.1831
-19.068	0.461952
-18.7662	5.51905
-30.7063	11.7375
-17.0763	6.06919
-18.3672	7.48456
-17.5668	8.23387
-17.9667	9.45556
-18.3672	7.48456
-17.5998	6.2653
-17.0763	6.06919
-16.9667	11.1877
-16.6816	11.0831
-16.4363	12.5074
-19.9986	-1.32289
-19.5422	-0.383867
-19.068	0.461952
-19.9986	-1.32289
-19.3324	1.6374
-21.7414	-2.80099
-19.9986	-1.32289
-18.1697	2.18037
-16.9687	1.52219
-19.068	0.461952
-17.5355	4.35164
-17.0763	6.06919
-19.068	0.461952
-17.645	2.47525
-16.9687	1.52219
-17.0763	6.06919
-16.4562	6.2148
-15.9369	6.89744
-17.0763	6.06919
-16.9075	5.44808
-15.4407	4.95889
-15.9369	6.89744
-15.6728	7.98357
-15.276	8.78368
-15.276	8.78368
-17.3655	9.78117
-15.7662	10.7151
-15.276	8.78368
-16.2809	8.28812
-13.9754	7.26408
-15.276	8.78368
-17.0006	8.52301
-14.6979	9.10182
-15.7662	10.7151
-15.7643	10.1572
-16.4363	12.5074
-15.7662	10.7151
-15.2809	9.66672
-13.7823	10.8346
-16.4363	12.5074
-15.0089	12.0863
-14.5072	12.9509
-16.4363	12.5074
-14.0002	9.03617
-13.7823	10.8346
-16.4363	12.5074
-14.0023	10.7805
-13.0829	11.55
-14.5072	12.9509
-13.4627	11.7899
-12.9986	14.2655
-14.5072	12.9509
-12.468	10.0534
-13.0829	11.55
-14.5072	12.9509
-12.4432	11.7265
-12.5131	13.021
-12.9986	14.2655
-14.0914	11.8522
-12.5131	13.021
-21.0102	-6.422
-22.0851	-6.3065
-23.2252	-7.50205
-21.0102	-6.422
-22.123	-6.11963
-21.934	-7.14055
-22.0679	-4.73417
-22.0158	-3.49188
-21.7414	-2.80099
-22.0679	-4.73417
-17.9963	-2.17492
-21.934	-7.14055
-21.7414	-2.80099
-17.7789	-0.351904
-16.0443	-0.647161
-21.7414	-2.80099
-17.8398	0.202154
-15.0238	1.05612
-16.9687	1.52219
-17.4236	3.52377
-17.2388	4.10542
-17.2388	4.10542
-16.4534	3.95995
-15.4407	4.95889
-17.2388	4.10542
-16.8983	1.35794
-15.589	2.97008
-17.2388	4.10542
-15.9768	3.79788
-15.589	2.97013
-15.4407	4.95889
-15.9054	5.72519
-15.5889	2.97019
-13.9754	7.26408
-14.7687	6.99443
-15.5889	2.97019
-13.9754	7.26408
-14.9064	6.76288
-12.9949	8.09036
-14.6979	9.10182
-14.4093	9.47961
-13.7823	10.8346
-14.6979	9.10182
-14.4916	7.28132
-12.9949	8.09036
-14.6979	9.10182
-14.0825	8.07335
-12.9948	8.09041
-13.7823	10.8346
-13.2623	9.35648
-12.0363	9.85684
-13.0829	11.55
-12.7844	10.6015
-12.0363	9.85684
-12.5131	13.021
-12.0338	12.3264
-11.0851	11.6162
-10.0115	16.0842
-9.51608	17.0577
-9.09259	17.8633
-10.0115	16.0842
-9.13941	15.8455
-9.09491	14.8509
-9.09259	17.8633
-9.17853	16.6221
-8.17156	16.6184
-9.17805	18.4756
-8.65141	17.6665
-8.14483	16.6581
-9.17805	18.4756
-7.69896	18.4648
-7.03544	18.3493
-22.0775	-9.12628
-23.6516	-8.31367
-23.2252	-7.50205
-22.0775	-9.12628
-24.643	-9.89945
-23.0778	-10.8572
-23.2252	-7.50205
-22.6909	-7.34899
-21.934	-7.14055
-21.934	-7.14055
-16.425	-3.3248
-21.3183	-7.74273
-15.0238	1.05612
-14.8171	0.111171
-14.7909	-0.498467
-15.589	2.97008
-14.2087	3.7739
-15.589	2.97013
-15.589	2.97008
-15.3481	2.00061
-15.0238	1.05608
-15.589	2.97008
-16.3087	1.001
-15.4817	3.00604
-15.589	2.97013
-15.4667	3.74461
-15.5889	2.97019
-15.589	2.97013
-14.9618	3.62347
-15.4817	3.00604
-15.589	2.97013
-14.0762	4.23164
-14.1313	4.33744
-15.5889	2.97019
-14.5209	5.51241
-12.9949	8.09036
-15.5889	2.97019
-14.0548	4.29165
-14.1313	4.33744
-15.5889	2.97019
-13.9985	4.52141
-13.1877	6.10959
-12.9949	8.09036
-13.5194	7.25014
-12.9948	8.09041
-12.9949	8.09036
-13.6882	5.45849
-13.1877	6.10959
-12.9949	8.09036
-13.0347	6.34171
-11.1149	7.42106
-12.9948	8.09041
-12.8935	9.13601
-12.0363	9.85684
-12.9948	8.09041
-12.4609	7.36419
-11.1149	7.42106
-12.0363	9.85684
-11.6221	11.0206
-11.0851	11.6162
-12.0363	9.85684
-11.392	9.92205
-10.0379	9.9167
-11.0851	11.6162
-10.5485	11.8766
-9.18849	12.2458
-10.6107	13.5616
-9.55959	13.964
-9.09491	14.8509
-10.6107	13.5616
-9.65882	14.016
-9.20349	14.2436
-9.09491	14.8509
-9.31606	16.6844
-8.17156	16.6184
-9.09491	14.8509
-9.55685	12.2858
-9.20349	14.2436
-9.09491	14.8509
-9.14647	13.1518
-8.17154	16.6183
-8.17156	16.6184
-8.91076	15.8734
-8.14483	16.6581
-8.14483	16.6581
-7.67261	17.4211
-7.03544	18.3493
-8.14483	16.6581
-7.60164	16.1037
-7.164	18.305
-23.0778	-10.8572
-23.1313	-9.85572
-22.934	-8.87264
-23.0778	-10.8572
-23.2194	-11.6388
-24.3183	-12.9389
-23.0778	-10.8572
-22.728	-10.441
-23.9446	-10.9736
-22.934	-8.87264
-17.0203	-6.66718
-23.9446	-10.9736
-22.934	-8.87264
-15.7694	-5.23888
-19.9699	-4.50735
-21.3183	-7.74273
-16.5203	-2.3371
-15.2498	-2.44361
-21.3183	-7.74273
-17.7319	-3.6244
-19.9699	-4.50735
-21.3183	-7.74273
-15.9462	-3.43913
-15.2498	-2.44365
-15.2498	-2.44361
-17.2527	-3.1651
-15.2498	-2.44365
-14.7909	-0.498467
-15.0665	0.787496
-15.0238	1.05608
-14.7909	-0.498467
-15.8085	-0.836072
-14.7908	-0.498545
-14.7909	-0.498467
-15.9863	0.317688
-13.1014	0.548094
-15.4817	3.00604
-14.1595	2.62546
-14.1312	4.33733
-14.1313	4.33744
-13.7856	7.00781
-13.1877	6.10959
-14.1313	4.33744
-15.4667	4.02089
-14.1312	4.33733
-14.1313	4.33744
-12.1176	3.93007
-14.1312	4.33739
-13.1877	6.10959
-12.5277	3.85532
-14.1312	4.33739
-11.1149	7.42106
-11.0534	7.9272
-11.0171	8.18601
-11.1149	7.42106
-11.7183	6.19763
-12.1307	4.29467
-11.0171	8.18601
-11.3396	7.22883
-9.13158	7.54604
-11.0171	8.18601
-10.696	8.91455
-9.50718	9.50596
-10.0379	9.9167
-9.28817	10.0951
-9.50718	9.50596
-10.0379	9.9167
-9.97138	10.9619
-8.03318	10.8676
-9.18849	12.2458
-9.76071	13.7074
-9.20349	14.2436
-9.18849	12.2458
-9.73078	12.2493
-8.03318	10.8676
-9.18849	12.2458
-9.20339	13.3856
-7.75858	12.8563
-8.17154	16.6183
-7.65607	15.7072
-7.164	18.305
-8.17154	16.6183
-7.71282	15.6824
-7.29	14.8085
-8.17154	16.6183
-7.24232	16.953
-6.2616	16.5239
-7.164	18.305
-7.27582	14.9463
-6.2616	16.5239
-6.14812	16.5736
-5.23054	18.8988
-5.20655	19.1433
-5.20655	19.1433
-4.88127	20.5809
-5.34505	21.1417
-5.20655	19.1433
-5.37115	19.2035
-3.36326	18.3898
-5.20655	19.1433
-7.00548	18.1218
-3.58495	20.3262
-5.34505	21.1417
-6.63134	20.0867
-4.26896	20.6573
-24.6928	-14.9035
-24.4445	-15.1601
-24.6242	-15.3314
-24.3183	-12.9389
-23.9795	-13.256
-24.2542	-13.3691
-23.9446	-10.9736
-23.6118	-9.55356
-19.9699	-4.50735
-23.9446	-10.9736
-19.5049	-5.63554
-18.0399	-5.03169
-19.9699	-4.50735
-17.0884	-2.98143
-15.2498	-2.44365
-19.9699	-4.50735
-15.8715	-5.29144
-18.0399	-5.03169
-15.2498	-2.44365
-16.0612	-2.12339
-16.3643	-3.9398
-15.2498	-2.44365
-14.6984	-2.78422
-15.2499	-2.44366
-14.7908	-0.498545
-14.8721	-1.8263
-15.2499	-2.44366
-13.1014	0.548094
-14.2187	1.5389
-13.5932	2.46792
-13.5932	2.46792
-13.3816	2.30449
-13.1047	0.543358
-14.1312	4.33733
-14.0948	5.06755
-14.1312	4.33739
-14.1312	4.33733
-14.131	0.851955
-13.5932	2.46801
-14.1312	4.33739
-12.1305	4.27145
-12.1307	4.29467
-12.1307	4.29467
-10.4359	6.77179
-9.13158	7.54604
-12.1307	4.29467
-9.76571	4.88283
-10.1303	4.24817
-9.13158	7.54604
-9.78883	8.4748
-9.50718	9.50596
-9.13158	7.54604
-9.82781	6.6563
-8.67416	5.61816
-9.13158	7.54604
-9.20785	7.3242
-6.97383	5.70759
-9.50718	9.50596
-9.57681	10.3809
-8.03318	10.8676
-9.50718	9.50596
-8.59599	9.50956
-7.34756	8.98973
-8.03318	10.8676
-9.97116	12.6919
-7.75858	12.8563
-8.03318	10.8676
-8.27633	11.3364
-6.45971	11.3365
-7.75858	12.8563
-7.79075	14.0128
-7.29	14.8085
-7.75858	12.8563
-7.47329	13.1495
-9.18373	14.2595
-7.29	14.8085
-6.76569	15.5838
-6.2616	16.5239
-7.29	14.8085
-6.34722	13.0396
-9.18373	14.2595
-7.29	14.8085
-6.666	14.0586
-5.28902	14.8788
-6.2616	16.5239
-5.24819	14.1873
-5.28902	14.8788
-5.3436	18.2532
-4.81724	17.4951
-3.36326	18.3898
-5.3436	18.2532
-5.86315	15.7795
-4.27899	16.6044
-3.36326	18.3898
-4.28344	19.3802
-3.58495	20.3262
-3.36326	18.3898
-5.82671	16.357
-4.27891	16.6044
-3.36326	18.3898
-4.77756	17.9309
-3.36318	18.3898
-3.58495	20.3262
-5.55495	20.0453
-4.26896	20.6573
-3.58495	20.3262
-4.0898	19.6157
-2.35803	20.1375
-4.26896	20.6573
-3.5488	20.6291
-1.61163	22.0175
-24.5422	-17.3264
-25.4903	-17.8047
-23.547	-19.1366
-24.5422	-17.3264
-24.731	-16.612
-23.8009	-16.2427
-24.6242	-15.3314
-24.8514	-13.8042
-24.2542	-13.3691
-24.6242	-15.3314
-19.6286	-8.72169
-23.4299	-14.281
-24.2542	-13.3691
-19.5721	-7.09209
-18.9674	-6.66816
-24.2542	-13.3691
-19.202	-9.68199
-23.4299	-14.281
-24.2542	-13.3691
-19.2021	-7.94987
-18.9674	-6.66814
-18.9674	-6.66816
-17.5318	-6.86071
-18.0399	-5.03169
-18.9674	-6.66816
-18.1409	-7.49889
-17.1768	-5.78398
-18.0399	-5.03169
-18.2608	-3.8824
-16.3643	-3.9398
-18.0399	-5.03169
-16.6131	-5.77922
-16.3642	-3.93987
-16.3643	-3.9398
-16.5204	-2.33719
-15.2499	-2.44366
-15.2499	-2.44366
-14.893	-1.79758
-14.7908	-0.498636
-15.2499	-2.44366
-16.5205	-4.06998
-16.8592	-2.01682
-14.7908	-0.498636
-14.3945	-0.237738
-13.1047	0.543358
-14.7908	-0.498636
-14.677	-2.32688
-14.7908	-0.498694
-14.7908	-0.498636
-14.096	-0.166332
-14.7908	-0.498647
-13.1047	0.543358
-12.8404	0.0804701
-13.5932	2.46801
-13.1047	0.543358
-13.6764	1.28582
-11.6139	2.61226
-13.5932	2.46801
-14.0044	2.72134
-11.6863	3.01225
-13.5932	2.46801
-11.4231	-0.24079
-11.6139	2.61226
-13.5932	2.46801
-11.173	0.495974
-11.6863	3.0122
-10.1303	4.24817
-8.35119	3.57845
-8.21563	3.67195
-8.67416	5.61816
-7.97175	5.50476
-6.97376	5.70759
-7.34756	8.98973
-6.35108	10.5048
-6.45971	11.3365
-7.34756	8.98973
-6.35913	9.14194
-5.36192	9.21746
-6.45971	11.3365
-5.97049	12.0577
-9.18373	14.2595
-6.45971	11.3365
-6.784	10.5454
-5.36192	9.21746
-6.45971	11.3365
-6.28715	11.4099
-4.48297	11.0358
-9.18373	14.2595
-5.77395	12.2713
-4.48297	11.0358
-5.28902	14.8788
-4.78216	15.7358
-4.27899	16.6044
-5.28902	14.8788
-4.82529	14.2782
-3.8828	12.9639
-5.28902	14.8788
-4.8105	13.7613
-3.28529	14.8673
-4.27899	16.6044
-4.84811	15.7924
-4.27891	16.6044
-4.27899	16.6044
-4.94609	14.0117
-3.28529	14.8673
-4.27899	16.6044
-4.36373	14.938
-2.35724	16.6615
-3.36318	18.3898
-2.47371	18.475
-1.36429	18.4143
-2.35803	20.1375
-1.7633	21.0645
-1.61163	22.0175
-2.35803	20.1375
-1.86743	19.1304
-1.36429	18.4143
-2.35803	20.1375
-2.8678	19.7182
-0.38233	20.1695
-1.61163	22.0175
-3.6154	21.1113
-0.38233	20.1695
-23.547	-19.1366
-24.0492	-16.8969
-23.8009	-16.2427
-23.547	-19.1366
-24.3313	-18.5821
-23.9199	-19.0289
-23.8009	-16.2427
-23.767	-15.0315
-23.4299	-14.281
-23.4299	-14.281
-19.0314	-8.0403
-18.9674	-6.66814
-18.9674	-6.66814
-19.807	-7.21326
-20.4594	-7.97212
-18.9674	-6.66814
-17.1854	-7.49749
-17.5572	-7.12312
-17.1768	-5.78398
-17.499	-4.68148
-16.3642	-3.93987
-17.1768	-5.78398
-18.5719	-6.43218
-17.5572	-7.12312
-16.3642	-3.93987
-17.3675	-4.72697
-17.8934	-5.21864
-16.8592	-2.01682
-16.7145	-3.57965
-16.3641	-3.93982
-14.7908	-0.498694
-14.9058	-1.49495
-14.9391	-2.49724
-14.7908	-0.498694
-14.8507	-2.26263
-13.9106	-2.29456
-11.6863	3.0122
-9.68044	5.72555
-13.3225	4.16249
-11.6863	3.0122
-10.6946	3.00357
-9.68563	3.00093
-13.3225	4.16249
-10.1859	5.62085
-8.21563	3.67195
-13.3225	4.16249
-8.25672	1.20806
-9.68563	3.00093
-8.21563	3.67195
-7.53414	4.50531
-6.97376	5.70759
-8.21563	3.67195
-7.51471	3.02691
-9.18142	4.12812
-8.21563	3.67195
-6.97931	3.6536
-6.53255	6.60838
-6.97376	5.70759
-6.93582	6.669
-5.69971	7.23419
-6.97376	5.70759
-6.51689	5.67838
-5.03655	5.34776
-5.69971	7.23419
-5.87084	8.27136
-5.36192	9.21746
-5.36192	9.21746
-5.16583	10.2625
-4.48297	11.0358
-3.8828	12.9639
-2.99657	13.4564
-3.28529	14.8673
-3.8828	12.9639
-3.61809	12.1942
-2.49958	10.756
-3.8828	12.9639
-3.33329	13.1725
-0.64554	11.4641
-3.28529	14.8673
-3.86032	14.0736
-2.35724	16.6615
-2.35724	16.6615
-2.65901	14.2159
-1.10665	13.348
-2.35724	16.6615
-2.49106	15.4217
-0.898078	15.3014
-2.35728	16.6616
-1.37278	16.6935
-0.49956	17.2474
-1.36429	18.4143
-0.687017	19.4484
-0.38233	20.1695
-0.38233	20.1695
-0.246402	21.813
0.695048	21.8496
-0.38233	20.1695
-0.450188	20.1881
0.897532	18.635
-0.38233	20.1695
-1.5493	20.6699
0.695028	21.8495
0.695048	21.8496
-2.45297	23.3926
-0.297483	24.0181
0.695048	21.8496
-0.918516	22.6868
0.695028	21.8495
0.695048	21.8496
-1.4453	23.4238
1.40461	23.7227
-0.297483	24.0181
-3.65898	23.2576
1.40461	23.7227
-23.9199	-19.0289
-25.1639	-18.8381
-24.1735	-18.9119
-23.9199	-19.0289
-25.6319	-18.2616
-25.1555	-17.3771
-25.1083	-17.4141
-26.1552	-15.6782
-26.1549	-15.7114
-25.1083	-17.4141
-22.4883	-12.4365
-25.1555	-17.3771
-25.1083	-17.4141
-21.5503	-11.8467
-23.6383	-16.0993
-26.1549	-15.7114
-19.967	-9.67733
-20.4594	-7.97212
-26.1549	-15.7114
-20.1528	-11.3874
-23.6383	-16.0993
-26.1549	-15.7114
-20.5215	-10.3227
-20.0853	-9.88864
-20.4594	-7.97212
-19.1919	-7.96815
-17.5572	-7.12312
-20.4594	-7.97212
-19.6212	-9.64995
-20.0853	-9.88864
-20.4594	-7.97212
-18.9606	-9.02735
-18.6412	-8.79305
-17.5572	-7.12312
-17.6403	-8.42585
-18.6412	-8.79305
-17.5572	-7.12312
-17.6875	-7.52046
-17.5779	-7.18936
-16.3641	-3.93982
-15.9165	-3.39349
-14.9391	-2.49724
-16.3641	-3.93982
-15.7486	-5.20971
-16.0279	-5.90786
-16.3641	-3.93982
-14.9562	-4.00964
-14.4302	-4.42438
-14.9391	-2.49724
-13.2052	-3.06322
-13.9106	-2.29456
-14.9391	-2.49724
-13.1399	-3.10328
-14.4302	-4.42438
-14.9391	-2.49724
-12.3018	-3.12112
-12.9828	-2.01877
-13.9106	-2.29456
-12.1931	-3.06357
-12.9828	-2.01877
-13.9106	-2.29456
-11.7029	-2.19746
-11.6947	-0.476705
-10.7006	1.26415
-11.2041	-1.42673
-11.6947	-0.476705
-10.7006	1.26415
-10.6971	-0.461891
-9.69944	-0.45961
-10.7006	1.26424
-10.183	0.311695
-9.69944	-0.45961
-10.7006	1.26424
-9.9318	0.866085
-8.70858	1.27141
-9.68563	3.00093
-9.80385	2.00852
-8.70858	1.27141
-9.68563	3.00093
-8.45429	3.10186
-7.68218	2.80021
-9.18142	4.12812
-7.15099	5.26997
-6.53255	6.60838
-9.18142	4.12812
-6.03785	1.83246
-7.68218	2.80021
-6.53255	6.60838
-5.58097	4.77164
-5.03655	5.34776
-6.53255	6.60838
-5.42426	3.80592
-5.03655	5.34766
-5.03655	5.34776
-4.90016	6.63669
-4.57326	7.37779
-5.03655	5.34776
-5.04441	4.72139
-5.03655	5.34766
-5.03655	5.34776
-4.39535	5.46583
-3.14329	5.98126
-4.57326	7.37779
-3.53798	7.55626
-3.38925	8.97854
-3.38925	8.97854
-3.785	9.80016
-2.49958	10.756
-3.38925	8.97854
-3.00096	8.27453
-2.39392	7.81533
-3.38925	8.97854
-2.15243	8.13005
-1.79142	9.72057
-2.49958	10.756
-3.1626	10.8775
-0.64554	11.4641
-2.49958	10.756
-1.66082	10.4291
-0.551296	11.2024
-0.64554	11.4641
-1.66081	12.1612
-1.10665	13.348
-0.64554	11.4641
-2.28058	11.9611
0.785008	12.7063
-1.10665	13.348
-1.44046	12.4106
0.785008	12.7063
-0.898078	15.3014
-0.90998	16.3187
-0.49956	17.2474
-0.898078	15.3014
-1.0497	14.3475
0.785031	12.7064
-0.898078	15.3014
-0.33911	15.0685
1.01716	14.716
0.897532	18.635
0.0498016	21.0541
0.695028	21.8495
0.695028	21.8495
-0.304493	23.6126
1.40461	23.7227
0.695028	21.8495
0.564616	21.9145
-1.30401	21.9115
1.40461	23.7227
0.675488	25.607
2.05657	26.4224
2.05657	26.4224
-0.506057	25.805
2.78622	27.4821
-24.1735	-18.9119
-23.1882	-19.0687
-23.7998	-19.101
-24.1735	-18.9119
-24.9912	-19.2247
-22.6596	-17.5016
-25.1555	-17.3771
-24.149	-18.5325
-22.6596	-17.5016
-23.6383	-16.0993
-20.4131	-10.6204
-20.0853	-9.88864
-23.6383	-16.0993
-20.9845	-13.2823
-22.6596	-17.5016
-23.6383	-16.0993
-20.4711	-12.3322
-18.4193	-10.6542
-20.0853	-9.88864
-18.8029	-11.7448
-18.4193	-10.6542
-18.6412	-8.79305
-18.7975	-8.78261
-19	-8.66025
-17.5779	-7.18936
-17.1214	-6.65845
-16.0279	-5.90786
-17.5779	-7.18936
-16.8638	-8.619
-19	-8.66025
-17.5779	-7.18936
-15.4429	-7.72835
-15.6649	-7.85957
-14.4302	-4.42438
-13.3387	-2.97978
-12.9828	-2.01877
-14.4302	-4.42438
-13.1771	-3.8357
-12.4929	-3.95131
-12.9828	-2.01877
-12.4921	-3.04544
-12.4929	-3.95131
-12.9828	-2.01877
-10.704	-3.92421
-11.0621	-2.55699
-11.6947	-0.476705
-10.2138	-1.49535
-9.69944	-0.45961
-9.69944	-0.45961
-9.21741	-1.33031
-9.1726	-1.8734
-9.69944	-0.45961
-8.84753	0.0436972
-7.72626	-0.467944
-8.70858	1.27141
-8.49993	2.05136
-7.68218	2.80021
-8.70858	1.27141
-9.53469	0.325763
-7.72626	-0.467944
-8.70858	1.27141
-8.4365	0.833722
-6.85827	1.89813
-7.68218	2.80021
-6.0575	2.10387
-7.31761	4.76661
-7.68218	2.80021
-7.06795	1.8981
-7.6821	2.80019
-7.31761	4.76661
-6.78514	3.51056
-5.03655	5.34766
-7.31761	4.76661
-4.64237	1.65038
-7.6821	2.80019
-5.03655	5.34766
-3.6475	3.51327
-5.80877	3.52127
-5.03655	5.34766
-3.60417	4.44146
-5.80871	3.52124
-3.14329	5.98126
-2.27347	6.16708
-1.15299	6.25091
-2.39392	7.81533
-1.79877	9.80489
-1.79142	9.72057
-1.79142	9.72057
-1.85516	11.4818
-0.551296	11.2024
-1.79142	9.72057
-1.40807	9.37846
0.0438598	9.27539
-0.551296	11.2024
-0.32295	9.98014
0.785008	12.7063
-0.551296	11.2024
-1.10585	8.51583
-0.551261	11.2023
0.785008	12.7063
0.698013	10.5647
0.784975	12.7062
0.785008	12.7063
-0.291451	11.3773
2.6973	12.2564
1.01716	14.716
2.015	16.3775
1.41506	16.6958
1.41506	16.6958
1.96393	17.5977
-1.30401	21.9115
1.41506	16.6958
2.39298	16.9108
3.31148	17.3099
-1.30401	21.9115
0.7474	22.9352
1.40463	23.7228
-1.30401	21.9115
1.03535	22.1818
3.31149	17.31
1.40463	23.7228
0.878587	25.7041
2.11022	25.6042
1.40463	23.7228
0.471029	23.2364
3.31149	17.31
2.11022	25.6042
1.92024	27.4076
2.78622	27.4821
2.11022	25.6042
1.12025	25.9727
2.90303	27.4242
-23.7998	-19.101
-22.8149	-18.9453
-23	-19.0526
-23.7998	-19.101
-22.439	-19.4063
-21.7152	-19.7322
-22.6596	-17.5016
-22.1874	-16.8848
-22.6596	-17.5016
-22.6596	-17.5016
-19.442	-14.3161
-21.7152	-19.7322
-22.6596	-17.5016
-19.5848	-14.6634
-18.9606	-19.203
-22.6596	-17.5016
-20.746	-14.8302
-18.9606	-19.203
-18.4919	-10.6079
-17.5768	-11.0149
-16.589	-11.1818
-19	-8.66025
-17.2719	-7.3229
-15.6649	-7.85957
-19	-8.66025
-18.0471	-9.01255
-17.0547	-9.23115
-15.6649	-7.85957
-15.7613	-6.87477
-15.5751	-6.29363
-15.6649	-7.85957
-13.3283	-7.53211
-13.9475	-7.45592
-15.5751	-6.29363
-13.5206	-4.95059
-12.4929	-3.95131
-15.5751	-6.29363
-12.1162	-7.41445
-13.9475	-7.45592
-11.0621	-2.55699
-10.2599	-3.15295
-9.54571	-3.85214
-9.1726	-1.8734
-8.41987	-1.20113
-7.72626	-0.467944
-9.1726	-1.8734
-8.85916	-1.99674
-9.7782	-1.89339
-7.72626	-0.467944
-8.61572	-1.66548
-9.7782	-1.89339
-7.72626	-0.467944
-8.24544	-1.16938
-7.72621	-0.467862
-6.85827	1.89813
-8.39526	-0.424409
-7.72621	-0.467862
-7.6821	2.80019
-6.47971	1.67139
-6.10841	1.54715
-5.80877	3.52127
-5.68013	3.60956
-5.80871	3.52124
-5.80877	3.52127
-6.5485	2.75472
-6.10841	1.54715
-5.80877	3.52127
-2.22534	3.16939
-5.80876	3.52121
-5.80871	3.52124
-1.75371	5.90871
-1.18542	8.40067
-1.15299	6.25091
-0.6378	8.32154
0.0438598	9.27539
-1.15299	6.25091
-0.505346	6.3731
-1.18542	8.40067
-1.15299	6.25091
-1.55555	7.77265
0.500915	7.32536
0.0438598	9.27539
-0.303502	8.8258
-0.551261	11.2023
0.0438598	9.27539
-0.940304	8.28183
0.500915	7.32536
0.0438598	9.27539
-0.21835	9.19082
1.94544	8.66694
-0.551261	11.2023
1.05139	7.99465
1.94544	8.66694
0.784975	12.7062
2.35045	13.0136
2.6973	12.2564
0.784975	12.7062
1.01383	9.79442
2.69735	12.2564
2.6973	12.2564
2.04771	11.4601
2.69735	12.2564
2.89941	14.1794
2.06603	12.8702
2.69742	12.2564
2.82062	15.3587
3.23819	15.8357
3.31148	17.3099
3.31148	17.3099
3.88258	18.2178
3.31149	17.31
3.31148	17.3099
2.99362	17.4367
3.85545	19.2446
3.31149	17.31
1.26708	24.9204
1.6311	25.8808
3.31149	17.31
1.54227	23.004
3.85545	19.2446
2.90303	27.4242
3.37691	26.7653
4.63165	25.0365
4.05427	29.0652
4.04302	28.3894
4.71465	27.0908
4.05427	29.0652
4.90927	28.9524
5.84844	28.0126
-23	-19.0526
-21.8016	-20.1475
-21.7152	-19.7322
-23	-19.0526
-20.9357	-20.9212
-19.9681	-20.7063
-21.7152	-19.7322
-19.9504	-19.209
-18.9606	-19.203
-21.7152	-19.7322
-17.9251	-16.501
-18.9606	-19.203
-18.9606	-19.203
-17.1446	-12.5804
-16.499	-11.1762
-18.9606	-19.203
-18.8112	-15.4001
-18.9606	-19.203
-18.9606	-19.203
-17.7657	-14.0793
-17.9402	-17.4829
-16.589	-11.1818
-18.2975	-9.99313
-17.0547	-9.23115
-16.589	-11.1818
-16.5951	-10.3825
-15.1448	-9.83172
-17.0547	-9.23115
-16.5496	-8.2799
-17.5403	-7.29101
-17.0547	-9.23115
-15.2601	-11.919
-15.1448	-9.83172
-17.0547	-9.23115
-14.9559	-11.0154
-15.0432	-9.21777
-17.5403	-7.29101
-14.1794	-8.51663
-13.9475	-7.45592
-17.5403	-7.29101
-14.6608	-10.402
-15.0432	-9.21777
-17.5403	-7.29101
-13.6208	-9.51495
-13.8467	-7.61517
-13.9475	-7.45592
-12.49	-7.64489
-12.6239	-5.94496
-12.6239	-5.94496
-12.0598	-6.98535
-11.9644	-7.64676
-12.6239	-5.94496
-11.4945	-6.24939
-10.6167	-6.14794
-11.4766	-4.3461
-10.4842	-6.3161
-10.6167	-6.14794
-11.4766	-4.3461
-10.3042	-4.71466
-9.49997	-4.45162
-9.54571	-3.85214
-10.3171	-3.02919
-9.7782	-1.89339
-9.54571	-3.85214
-9.79607	-4.93107
-9.49997	-4.45162
-9.54571	-3.85214
-8.82609	-4.36176
-7.97904	-2.6792
-9.7782	-1.89339
-8.68634	-2.74133
-7.72621	-0.467862
-7.72621	-0.467862
-7.64136	-2.4795
-7.8659	-2.46608
-7.34318	-0.0403136
-6.84255	0.782666
-6.10841	1.54715
-6.10841	1.54715
-5.88062	0.790233
-5.40366	0.267585
-6.10841	1.54715
-6.5704	1.68497
-6.10831	1.54716
-5.80876	3.52121
-1.34225	4.39891
-6.10831	1.54716
-1.18542	8.40067
-0.361517	6.33485
0.500915	7.32536
-1.18542	8.40067
-1.09468	5.72267
-5.25409	3.35868
-1.18542	8.40067
-0.39496	5.52489
0.775921	5.34432
0.500915	7.32536
0.0153136	6.3247
0.775921	5.34432
0.500915	7.32536
0.106212	7.22156
0.500983	7.32531
1.94544	8.66694
0.735854	9.50571
1.3333	10.7853
1.94544	8.66694
1.3855	8.66686
1.86916	8.85119
1.3333	10.7853
2.17228	9.46281
1.86916	8.85119
2.69735	12.2564
2.94602	10.3217
4.57254	11.6393
2.69742	12.2564
2.88413	12.1238
4.57254	11.6393
2.69742	12.2564
3.25083	13.6132
4.19469	13.5832
4.19465	13.5831
3.23875	15.749
4.4537	15.6616
4.19465	13.5831
2.89571	15.8095
5.09697	15.3408
4.4537	15.6616
2.92579	19.2118
3.85545	19.2446
4.4537	15.6616
1.9123	19.1445
5.09697	15.3408
3.85545	19.2446
2.39443	22.5409
3.01943	23.8876
3.85545	19.2446
3.20241	21.7323
4.92012	20.9582
3.01943	23.8876
3.69793	24.0213
4.63165	25.0365
3.01943	23.8876
2.85428	22.8781
4.92012	20.9582
3.01943	23.8876
3.61021	23.1532
4.81062	23.0103
4.63165	25.0365
4.65366	23.404
4.81062	23.0103
4.63165	25.0365
4.55578	24.4424
5.66274	24.3544
4.71465	27.0908
5.33737	27.0218
5.84844	28.0126
4.71465	27.0908
5.49987	25.1731
5.66274	24.3544
4.71465	27.0908
6.02548	25.9392
6.51327	26.1581
5.84844	28.0126
6.54961	26.6903
6.51327	26.1581
-19.9681	-20.7063
-19.4856	-21.815
-19.1866	-22.5441
-17.9402	-17.4829
-17.4605	-16.6167
-14.7902	-12.2525
-17.9402	-17.4829
-17.4503	-18.3548
-16.9605	-19.2266
-17.9402	-17.4829
-15.6108	-14.0663
-15.4314	-14.1479
-14.7902	-12.2525
-15.9449	-12.7466
-14.7901	-12.2526
-15.1448	-9.83172
-15.3338	-9.9226
-15.0432	-9.21777
-15.0432	-9.21777
-14.5402	-8.46146
-13.8467	-7.61517
-15.0432	-9.21777
-14.9424	-11.1279
-13.6244	-10.6274
-15.0432	-9.21777
-12.779	-11.2378
-13.0381	-9.44446
-13.8467	-7.61517
-12.0496	-10.5017
-13.0381	-9.44446
-13.8467	-7.61517
-11.6281	-9.62822
-13.0381	-9.44441
-11.9644	-7.64676
-11.1185	-8.80514
-13.0381	-9.44441
-11.9644	-7.64676
-10.5597	-7.94765
-9.84531	-7.99774
-10.6167	-6.14794
-10.0637	-4.9796
-9.49997	-4.45162
-10.6167	-6.14794
-9.19048	-6.24076
-8.61939	-6.24752
-9.49997	-4.45162
-9.35264	-4.52964
-7.97904	-2.6792
-9.49997	-4.45162
-8.91139	-7.37215
-8.61939	-6.24752
-9.49997	-4.45162
-8.93096	-6.2844
-7.72564	-4.64792
-7.97904	-2.6792
-7.64115	-5.89936
-7.72564	-4.64792
-7.8659	-2.46608
-6.7688	-2.52277
-6.10611	-1.58764
-7.8659	-2.46608
-7.22929	-5.11256
-7.72555	-4.64795
-6.10611	-1.58764
-6.14709	-2.42925
-6.1483	-3.44196
-5.40366	0.267585
-6.68123	0.720878
-6.10831	1.54716
-6.10831	1.54716
-5.40687	0.822564
-4.16358	0.0368925
-6.10831	1.54716
-4.75408	2.52825
-3.59207	1.95992
-5.25409	3.35868
-0.36157	4.60276
0.775921	5.34432
-5.25409	3.35868
-1.28842	2.87612
-3.59207	1.95992
0.775921	5.34432
-0.159601	5.9216
0.500983	7.32531
0.775921	5.34432
0.498442	4.43312
-2.29614	4.8386
0.500983	7.32531
1.10515	7.87495
1.86916	8.85119
0.500983	7.32531
2.11991	5.55826
0.993401	5.37292
0.500983	7.32531
1.97806	6.74859
2.33237	6.89663
1.86916	8.85119
2.45073	9.16004
3.22707	10.3151
1.86916	8.85119
3.67787	8.25509
3.6869	8.36827
3.22707	10.3151
3.7859	8.34286
3.6869	8.36827
4.57254	11.6393
3.51111	11.0669
5.04136	9.87007
4.57254	11.6393
4.19619	11.8479
5.96432	11.6686
4.19469	13.5832
4.64539	14.5031
5.09697	15.3408
4.19469	13.5832
3.95273	14.1396
5.96432	11.6686
4.19469	13.5832
3.57951	14.897
6.1938	13.6654
5.09697	15.3408
2.86537	16.7881
6.1938	13.6654
5.09697	15.3408
3.97873	17.5047
6.93345	17.443
4.95849	17.5857
3.5202	21.0853
4.92012	20.9582
4.95849	17.5857
3.21322	18.6286
6.93345	17.443
4.95849	17.5857
3.77431	19.2896
6.03319	19.2446
4.92012	20.9582
4.03766	21.8159
4.81062	23.0103
4.92012	20.9582
4.23993	20.0749
6.03319	19.2446
4.81062	23.0103
5.16214	23.5502
5.66274	24.3544
4.81062	23.0103
5.14564	21.7406
5.68935	21.2109
4.81062	23.0103
5.58144	22.716
6.76968	22.6921
5.66274	24.3544
6.43733	25.0043
6.51327	26.1581
5.66274	24.3544
6.17338	23.2894
6.76968	22.6921
-19.1866	-22.5441
-18.2313	-22.8369
-17.2359	-22.7561
-17.9809	-20.9461
-17.4561	-20.095
-16.9605	-19.2266
-17.9809	-20.9461
-16.9192	-20.9076
-18.8804	-22.052
-15.4314	-14.1479
-14.9637	-13.5338
-14.7901	-12.2526
-15.4314	-14.1479
-14.7073	-14.0381
-13.4736	-14.5401
-13.6244	-10.6274
-13.3993	-11.8619
-12.9783	-13.1414
-13.6244	-10.6274
-14.4986	-11.7644
-11.9937	-11.3926
-13.0381	-9.44441
-11.5352	-6.95688
-9.84531	-7.99774
-13.0381	-9.44441
-11.6895	-10.2658
-11.029	-9.63015
-13.0381	-9.44441
-10.4042	-8.8346
-9.84524	-7.99781
-9.84531	-7.99774
-10.5742	-8.64104
-8.61939	-6.24752
-8.61939	-6.24752
-9.25891	-5.49522
-7.72564	-4.64792
-8.61939	-6.24752
-8.29087	-7.28235
-8.96292	-6.20733
-7.72564	-4.64792
-7.87923	-5.85238
-7.72555	-4.64795
-7.72564	-4.64792
-7.60258	-7.7948
-8.96292	-6.20733
-7.72564	-4.64792
-7.81055	-7.84727
-7.05934	-6.52506
-6.1483	-3.44196
-5.85456	-4.20467
-5.58362	-5.30226
-6.1483	-3.44196
-6.09884	-3.46665
-6.14823	-3.44188
-4.16358	0.0368925
-4.33533	1.85174
-3.59207	1.95992
-4.16358	0.0368925
-3.79033	0.515761
-4.59209	0.22779
-3.59207	1.95992
-2.8453	3.65346
-2.29614	4.8386
-3.59207	1.95992
-0.338205	0.939582
-2.87634	1.25404
-2.29614	4.8386
-0.216686	4.37681
0.993401	5.37292
-2.29614	4.8386
1.50565	3.30599
0.503734	3.39785
0.993401	5.37292
1.55842	5.92251
2.33237	6.89663
0.993401	5.37292
2.37999	3.90873
0.503734	3.39785
0.993401	5.37292
2.67371	4.74247
2.78442	4.94838
2.33237	6.89663
4.02276	6.42896
9.58964	7.60099
3.6869	8.36827
4.1041	7.14147
9.58964	7.60099
3.6869	8.36827
4.45937	9.05211
5.66051	8.04487
5.04136	9.87007
4.64805	11.7929
5.96432	11.6686
5.04136	9.87007
4.7415	9.3646
5.66051	8.04487
5.04136	9.87007
4.72337	11.0561
5.89703	11.689
5.96432	11.6686
4.4593	14.8677
6.1938	13.6654
5.96432	11.6686
5.16789	13.0048
5.89703	11.689
5.96432	11.6686
5.22024	13.0209
6.19381	13.6653
6.1938	13.6654
3.80738	15.0221
6.19381	13.6653
6.1938	13.6654
5.05328	15.7717
7.04229	15.4742
6.93345	17.443
4.49376	19.3749
6.03319	19.2446
6.93345	17.443
4.08431	16.8225
7.04229	15.4742
6.93345	17.443
4.58894	17.3207
7.01762	17.4643
6.03319	19.2446
5.2156	18.3889
7.01762	17.4643
5.68935	21.2109
6.21211	21.7987
6.76968	22.6921
5.68935	21.2109
6.26778	20.1403
6.4538	19.3518
6.76968	22.6921
7.22495	21.8968
7.58087	20.8724
6.76968	22.6921
7.68065	22.331
8.76656	22.7656
7.66153	24.4781
8.58333	24.1102
9.62115	24.1344
-18.4028	-24.3805
-18.4671	-24.3038
-18.2359	-24.4882
-17.2359	-22.7561
-17.1083	-22.8436
-18.2359	-24.4882
-17.2359	-22.7561
-19.7592	-24.7766
-19.638	-25.7693
-18.8804	-22.052
-15.4422	-17.7191
-14.8738	-17.2166
-18.8804	-22.052
-15.2421	-18.9789
-19.638	-25.7693
-18.8804	-22.052
-14.4778	-17.9177
-21.5707	-25.2553
-14.8738	-17.2166
-14.4827	-15.733
-13.4736	-14.5401
-14.8738	-17.2166
-14.229	-17.2864
-21.5707	-25.2553
-14.8738	-17.2166
-13.9869	-16.7151
-13.0106	-16.4896
-13.4736	-14.5401
-13.5232	-13.969
-12.9783	-13.1414
-13.4736	-14.5401
-13.495	-15.7268
-13.0106	-16.4896
-13.4736	-14.5401
-13.0192	-14.6389
-11.4797	-14.5032
-12.9783	-13.1414
-12.4418	-12.2747
-11.9937	-11.3926
-12.9783	-13.1414
-12.5358	-13.9692
-11.4797	-14.5032
-12.9783	-13.1414
-12.0395	-13.0239
-10.9963	-13.1329
-11.9937	-11.3926
-11.3004	-10.6177
-11.029	-9.63015
-11.029	-9.63015
-10.0988	-8.65754
-9.84524	-7.99781
-11.029	-9.63015
-9.88873	-10.0606
-9.05211	-9.65446
-9.84524	-7.99781
-10.3516	-7.018
-8.96298	-6.20737
-8.96298	-6.20737
-9.05439	-8.35616
-8.96292	-6.20733
-8.96298	-6.20737
-9.7074	-8.1486
-7.9137	-8.59974
-8.96298	-6.20737
-7.64142	-10.4608
-6.98403	-6.81871
-8.96292	-6.20733
-7.15067	-8.63717
-7.45187	-4.89373
-7.05934	-6.52506
-5.59721	-5.14119
-5.58362	-5.30226
-7.05934	-6.52506
-6.72719	-6.9644
-7.45187	-4.89373
-5.58362	-5.30226
-7.43878	-3.32781
-6.14823	-3.44188
-5.58362	-5.30226
-5.7147	-4.48784
-3.6108	-4.98017
-6.14823	-3.44188
-6.06372	-0.658161
-4.59209	0.22779
-6.14823	-3.44188
-3.62653	-2.39632
-5.53532	-1.54413
-4.59209	0.22779
-3.46289	-0.608228
-3.04957	-0.738439
-1.36093	2.59571
-0.438021	1.28661
1.57403	1.82206
-1.36093	2.59571
-0.379187	2.77103
0.617401	2.74656
0.503734	3.39785
1.00999	2.49421
0.617401	2.74656
2.78442	4.94838
7.5907	7.64703
9.58964	7.60099
2.78442	4.94838
7.59071	5.91504
7.59176	7.69311
9.58964	7.60099
5.59309	7.6887
5.66051	8.04487
5.66051	8.04487
4.98981	10.9535
5.89703	11.689
5.89703	11.689
5.89807	13.4257
6.19381	13.6653
5.89703	11.689
5.63376	11.0983
6.6885	9.48307
5.89703	11.689
5.64858	12.1406
6.91873	13.4187
6.19381	13.6653
4.60362	14.9047
7.04229	15.4742
6.19381	13.6653
5.60658	13.8614
6.91873	13.4188
7.04229	15.4742
5.81497	16.7115
7.10652	15.4508
7.01762	17.4643
5.76862	16.832
7.10652	15.4508
7.01762	17.4643
6.40824	17.3328
7.01771	17.4643
6.4538	19.3518
7.06762	18.379
7.01771	17.4643
7.58087	20.8724
8.16453	21.8312
8.76656	22.7656
7.58087	20.8724
8.26413	20.0524
8.39002	19.2411
7.58087	20.8724
8.68805	20.7137
9.55643	20.8943
8.76656	22.7656
7.04499	21.5831
9.55643	20.8943
8.76656	22.7656
7.76078	23.1373
10.7554	22.4895
9.62115	24.1344
7.75887	23.1297
10.7554	22.4895
9.62115	24.1344
8.44813	23.8924
10.2389	25.5337
8.32587	26.0851
8.39723	23.8802
10.2389	25.5337
-18.2359	-24.4882
-19.7202	-27.8893
-17.7611	-26.4277
-19.638	-25.7693
-19.5168	-26.7619
-19.6379	-25.7693
-21.5707	-25.2553
-20.6043	-23.7802
-13.0106	-16.4896
-13.0106	-16.4896
-12.7791	-15.7322
-11.4797	-14.5032
-13.0106	-16.4896
-11.6169	-16.7623
-10.96	-17.227
-11.4797	-14.5032
-11.5227	-15.7187
-10.96	-17.227
-11.4797	-14.5032
-11.0542	-14.8434
-9.80996	-15.6395
-10.9963	-13.1329
-10.9258	-13.0238
-10.0425	-11.38
-10.9963	-13.1329
-10.3524	-13.2355
-9.52779	-13.6619
-10.0425	-11.38
-9.58232	-10.7498
-9.05211	-9.65446
-10.0425	-11.38
-9.38966	-12.9362
-9.52779	-13.6619
-10.0425	-11.38
-8.91256	-12.0136
-8.59895	-11.608
-7.9137	-8.59974
-8.08793	-7.55681
-6.98403	-6.81871
-6.98403	-6.81871
-6.19436	-5.69065
-7.45187	-4.89373
-7.45187	-4.89373
-4.97791	-5.02437
-3.97047	-5.05736
-4.87072	-3.4304
-3.28483	-4.24108
-2.7293	-3.94826
-5.53532	-1.54413
-4.25077	-0.772065
-3.04957	-0.738439
-5.53532	-1.54413
-5.1332	-0.628544
-4.7312	0.287097
-3.04957	-0.738439
0.057888	-0.76649
-4.7312	0.287097
-3.04957	-0.738439
0.0655974	-1.29149
0.541726	0.10907
1.57403	1.82206
-0.0976666	1.24529
0.617401	2.74656
1.57403	1.82206
0.805762	-0.248399
1.67198	-0.577965
0.617401	2.74656
2.01554	2.41935
2.51624	3.32263
0.617401	2.74656
6.54214	2.47011
2.09539	1.3767
2.51624	3.32263
6.43203	6.9496
2.51623	3.32255
7.59176	7.69311
6.14014	5.12396
2.51623	3.32255
7.59177	7.69305
6.09294	8.60465
6.6885	9.48307
7.59177	7.69305
5.24708	7.88544
7.2724	9.67022
7.59177	7.69305
5.5277	9.81748
5.78979	8.33217
6.6885	9.48307
5.02054	10.9699
6.91873	13.4187
6.6885	9.48307
6.28688	11.317
7.12484	11.4112
6.91873	13.4187
5.99008	11.6318
7.12484	11.4112
6.91873	13.4188
6.07637	14.7261
7.10652	15.4508
6.91873	13.4188
4.72705	12.374
6.91877	13.4187
6.91873	13.4188
5.557	13.866
8.16225	14.9597
7.10652	15.4508
6.97151	16.6048
7.01771	17.4643
7.10652	15.4508
5.87561	14.9087
8.16225	14.9597
7.10652	15.4508
7.38581	15.782
7.0963	15.4639
7.01771	17.4643
8.15014	16.5001
7.0963	15.4639
8.39002	19.2411
9.05019	18.2879
7.54302	17.4203
9.55643	20.8943
10.0536	21.655
10.7554	22.4895
9.55643	20.8943
10.2963	19.9132
10.3654	19.067
9.55643	20.8943
9.33866	22.132
11.5499	20.6756
10.7554	22.4895
9.18249	21.7387
10.2389	25.5337
10.7554	22.4895
8.73006	21.1994
11.5499	20.6756
10.7554	22.4895
9.23183	22.1766
11.2283	23.8057
10.2389	25.5337
7.30047	20.6669
11.2283	23.8057
-17.7611	-26.4277
-17.776	-26.5652
-17.7611	-26.4277
-17.7611	-26.4277
-18.4904	-29.1224
-18.7611	-28.1597
-17.7611	-26.4277
-19.6739	-26.0257
-19.6379	-25.7693
-17.7611	-26.4277
-13.7386	-23.0491
-18.7611	-28.1597
-17.7611	-26.4277
-13.6519	-22.3509
-20.638	-27.5014
-19.6379	-25.7693
-12.2415	-20.0012
-12.5477	-18.439
-19.6379	-25.7693
-12.8349	-21.6909
-20.638	-27.5014
-12.5477	-18.439
-11.4732	-19.9409
-12	-20.7846
-10.96	-17.227
-10.6114	-16.391
-9.80996	-15.6395
-10.96	-17.227
-9.81256	-17.3765
-8.98639	-17.4587
-9.80996	-15.6395
-10.2978	-16.3666
-8.98639	-17.4587
-9.52779	-13.6619
-8.87328	-14.3828
-9	-15.5885
-8.59895	-11.608
-8.13217	-12.7416
-7.8363	-13.8943
-8.59895	-11.608
-7.41417	-12.0777
-6.68074	-12.1939
-7.1476	-10.2295
-6.84225	-9.36956
-5.92462	-8.37932
-7.1476	-10.2295
-6.63995	-11.1905
-6.68074	-12.1939
-7.1476	-10.2295
-6.05127	-10.6723
-5.87238	-10.3628
-2.7293	-3.94826
-3.09391	-4.74916
-1.77391	-6.06084
-2.7293	-3.94826
-2.01133	-4.05682
-1.77385	-6.0608
-3.45853	-2.08595
-1.27097	-1.64045
-4.7312	0.287097
-4.7312	0.287097
-0.975818	-0.749614
0.541726	0.10907
1.67198	-0.577965
0.04501	2.62646
2.09539	1.3767
1.67198	-0.577965
1.88372	-1.33269
0.54177	0.109113
1.67198	-0.577965
1.80588	-0.248466
2.14532	1.29101
2.09539	1.3767
5.03108	4.67108
4.1459	1.40063
2.51623	3.32255
7.2285	7.64976
4.1459	1.40063
2.51623	3.32255
6.11317	8.92541
9.1846	9.0934
7.2724	9.67022
4.88464	8.26959
5.78979	8.33217
7.2724	9.67022
5.66987	7.81936
6.95403	11.6447
5.78979	8.33217
6.59419	10.7888
7.12484	11.4112
5.78979	8.33217
5.64748	8.90692
6.95403	11.6447
7.12484	11.4112
6.41261	12.412
6.91877	13.4187
7.12484	11.4112
5.78201	10.1565
8.90719	11.0729
6.91877	13.4187
7.52971	12.2891
8.90719	11.0729
6.91877	13.4187
5.7668	12.124
8.89717	13.0827
8.16225	14.9597
6.46347	15.0822
7.0963	15.4639
8.16225	14.9597
6.19639	13.1897
8.89717	13.0827
8.16225	14.9597
6.53884	13.8517
8.89724	13.0827
7.0963	15.4639
8.95767	14.6751
8.89724	13.0827
7.0963	15.4639
8.42158	15.5717
8.95574	15.9916
7.54302	17.4203
9.84915	18.021
10.3654	19.067
7.54302	17.4203
9.44514	17.2823
9.53766	17.2456
10.3654	19.067
11.0435	19.6965
11.5499	20.6756
10.3654	19.067
8.53184	17.893
9.53766	17.2456
11.5499	20.6756
9.90081	21.9509
11.2283	23.8057
11.5499	20.6756
10.4395	20.1819
11.55	20.6755
11.2283	23.8057
10.5688	21.129
11.55	20.6755
11.2283	23.8057
9.73297	21.3446
11.7706	21.8841
11.2351	23.8011
11.2642	22.043
11.7706	21.8841
-16.7842	-28.2207
-18.9473	-28.7474
-18.7611	-28.1597
-16.7842	-28.2207
-19.9609	-28.9119
-17.1768	-29.3908
-18.7611	-28.1597
-20.3817	-27.7134
-19.1254	-26.1934
-20.638	-27.5014
-12.3549	-21.7376
-12	-20.7846
-20.638	-27.5014
-12.5	-23.3877
-19.1254	-26.1934
-12	-20.7846
-11.2027	-20.1583
-10.7099	-19.2266
-12	-20.7846
-11.3313	-21.722
-17.5727	-24.9328
-12	-20.7846
-10.6913	-21.0319
-10	-20.7947
-10.7099	-19.2266
-10.429	-18.198
-8.98639	-17.4587
-10.7099	-19.2266
-10.5804	-19.9615
-10	-20.7947
-8.98639	-17.4587
-9.50283	-16.5175
-9	-15.5885
-8.98639	-17.4587
-9.25105	-18.2453
-8.69343	-19.2944
-8.98639	-17.4587
-8.92098	-17.4025
-8.1099	-17.381
-9	-15.5885
-8.26168	-14.749
-7.8363	-13.8943
-9	-15.5885
-8.44957	-16.6309
-8.1099	-17.381
-9	-15.5885
-7.71327	-15.3274
-7.00567	-15.7145
-7.8363	-13.8943
-7.40897	-12.9423
-6.68074	-12.1939
-7.8363	-13.8943
-7.75691	-14.8129
-7.00567	-15.7145
-7.8363	-13.8943
-6.93668	-13.4617
-6.21841	-14.1397
-6.68074	-12.1939
-5.94158	-11.5994
-5.87238	-10.3628
-6.68074	-12.1939
-7.01677	-13.1396
-6.21841	-14.1397
-6.68074	-12.1939
-5.79552	-11.9797
-4.76926	-11.4705
-5.87238	-10.3628
-4.41887	-10.298
-4.76921	-8.71149
-5.87238	-10.3628
-3.92794	-10.909
-4.02378	-9.57859
-4.76921	-8.71149
-3.16416	-8.9298
-3.21711	-7.70824
-3.10769	-7.56822
-2.13331	-7.02497
-1.77391	-6.06084
-3.10769	-7.56822
-2.35032	-8.27056
-3.21711	-7.70824
-3.10769	-7.56822
-2.90186	-9.02604
-1.27214	-6.71598
-1.77391	-6.06084
-2.76458	-6.06085
-1.77385	-6.0608
-1.77391	-6.06084
-2.60701	-7.77089
-1.27214	-6.71598
-1.77391	-6.06084
-2.24226	-7.17945
-0.0151054	-5.11878
-1.77385	-6.0608
-1.95198	-4.22512
-1.211	-3.50028
-1.77385	-6.0608
-2.19892	-6.13813
-0.0151054	-5.11878
-1.77385	-6.0608
-1.33023	-5.0741
-0.0030263	-5.11329
-1.211	-3.50028
-0.207283	-3.5612
0.625514	-3.2336
-0.330915	-1.68704
0.106103	-2.44398
0.625514	-3.2336
-0.330915	-1.68704
0.541963	-1.54194
1.67045	-1.53296
0.54177	0.109113
2.14562	-0.386573
2.54216	0.271107
4.1459	1.40063
3.43657	2.10548
4.14589	1.40056
4.1459	1.40063
4.48453	2.34689
5.02546	3.19353
9.1846	9.0934
7.96468	9.26442
6.95403	11.6447
9.1846	9.0934
6.14146	5.87621
7.98741	7.51932
6.95403	11.6447
7.33222	7.80515
7.98494	7.52521
7.33881	9.43716
7.90218	8.6137
7.98494	7.52521
8.90719	11.0729
8.66392	9.23532
9.22851	9.09828
8.90719	11.0729
8.83619	10.9973
9.22857	9.09827
8.89717	13.0827
8.85705	12.7885
8.89724	13.0827
8.89717	13.0827
7.49151	11.6761
9.22857	9.09827
8.89717	13.0827
7.95273	12.4926
10.7895	12.4168
8.89724	13.0827
7.92284	14.7052
8.95574	15.9916
8.89724	13.0827
8.11819	12.9656
10.7895	12.4168
8.95574	15.9916
9.03328	14.6577
9.95614	14.248
8.95574	15.9916
9.42787	15.5631
10.9462	15.8654
9.53766	17.2456
9.73574	18.1393
10.3655	19.0669
9.53766	17.2456
9.97104	17.0785
11.4998	17.4947
10.3655	19.0669
9.05641	19.9225
11.55	20.6755
10.3655	19.0669
10.7565	16.8427
11.4998	17.4947
10.3655	19.0669
10.6194	17.8927
11.6687	18.6946
11.7706	21.8841
11.6662	22.0313
13.2115	22.9251
11.7706	21.8841
12.8708	21.069
13.5301	20.9449
-19.1254	-26.1934
-13.4802	-27.0262
-17.5727	-24.9328
-19.1254	-26.1934
-18.349	-27.2951
-13.1719	-30.212
-17.5727	-24.9328
-18.7899	-22.6089
-10	-20.7947
-17.5727	-24.9328
-9.94322	-22.6551
-18.1255	-24.4613
-8.1099	-17.381
-6.69912	-15.6771
-7.00567	-15.7145
-8.1099	-17.381
-7.59611	-18.2544
-5.77659	-17.0066
-8.1099	-17.381
-7.1111	-17.332
-6.00008	-17.343
-7.00567	-15.7145
-6.39857	-13.9879
-6.21841	-14.1397
-7.00567	-15.7145
-6.07685	-15.6586
-6.00008	-17.343
-7.00567	-15.7145
-5.80278	-14.6363
-5.1123	-15.5508
-4.76926	-11.4705
-4.62234	-10.3746
-4.02378	-9.57859
-4.02378	-9.57859
-3.14805	-8.3202
-3.21711	-7.70824
-4.02378	-9.57859
-3.70233	-9.86562
-2.80811	-10.9889
-3.21711	-7.70824
-1.14301	-8.51593
-1.27211	-6.71605
-1.27214	-6.71598
-0.401178	-6.05407
-0.0151054	-5.11878
-1.27214	-6.71598
-0.0680734	-7.15866
-1.27211	-6.71605
-1.27214	-6.71598
-1.01997	-8.29295
0.689767	-6.39253
-0.0151054	-5.11878
-0.833845	-5.85854
-0.0030263	-5.11329
-0.0030263	-5.11329
0.508767	-5.41759
0.871037	-6.25115
0.625514	-3.2336
1.0535	-2.00414
1.67045	-1.53296
0.625514	-3.2336
1.11829	-4.10082
1.96869	-4.56449
0.625514	-3.2336
1.73887	-3.06127
2.5177	-2.61793
1.67045	-1.53296
2.58567	-2.8991
2.5177	-2.61793
1.67045	-1.53296
3.3586	-1.90582
3.93559	-1.19749
2.54216	0.271107
4.14241	-0.275129
5.57132	-0.0160404
4.14589	1.40056
4.60398	2.38536
5.02546	3.19353
4.14589	1.40056
4.51136	0.781479
5.57132	-0.0160404
4.14589	1.40056
6.18318	3.06351
6.13653	1.54619
5.02546	3.19353
6.60673	3.11559
6.13653	1.54619
5.02546	3.19353
6.87619	4.00679
7.0147	3.35473
7.98741	7.51932
7.43403	4.62274
7.0147	3.35473
7.98494	7.52521
8.57942	8.16807
9.22851	9.09828
7.98494	7.52521
8.19397	5.6134
8.6984	5.65819
7.98494	7.52521
8.07944	5.57003
9.93036	7.23787
10.7895	12.4168
10.3728	11.6003
12.2955	11.1045
10.7895	12.4168
12.1016	12.6945
12.7824	12.3135
9.95614	14.248
12.2872	13.2557
12.7824	12.3135
9.95614	14.248
10.7642	14.2518
14.5291	11.3362
10.9462	15.8654
10.9313	16.9846
11.4998	17.4947
10.9462	15.8654
10.4821	14.6458
14.5291	11.3362
11.4998	17.4947
11.5095	17.4962
13.4245	17.7694
11.6687	18.6946
12.0401	18.2121
13.3502	19.7619
11.55	20.6755
12.4501	20.2187
13.3502	19.7619
-13.1719	-30.212
-13.2636	-30.8595
-13.1815	-32.5396
-13.1719	-30.212
-12.3635	-30.7997
-11.5551	-31.3874
-12.7796	-29.8061
-12.1673	-28.8647
-18.1255	-24.4613
-5.77659	-17.0066
-4.86003	-14.8747
-6.00008	-17.343
-5.77659	-17.0066
-5.4251	-17.3358
-5.07362	-17.665
-5.77659	-17.0066
-6.05619	-19.045
-4.17825	-15.8815
-6.00008	-17.343
-4.58853	-16.2762
-2.82469	-14.3974
-5.1123	-15.5508
-3.36613	-12.9336
-3.36894	-12.9033
-5.1123	-15.5508
-4.69359	-14.5207
-2.82469	-14.3974
-3.36894	-12.9033
-3.36131	-12.176
-2.80811	-10.9889
-3.36894	-12.9033
-3.89474	-12.7066
-1.36631	-13.0148
-2.80811	-10.9889
-3.38606	-9.38047
-2.4143	-8.37585
-2.4143	-8.37585
-1.31767	-8.12529
-1.27211	-6.71605
-2.4143	-8.37585
-2.3251	-9.44582
-2.1561	-10.3586
-1.27211	-6.71605
0.375553	-8.84866
0.689767	-6.39253
-1.27211	-6.71605
-0.132181	-9.70425
2.56253	-7.31066
0.689767	-6.39253
0.716733	-6.78092
0.871037	-6.25115
0.689767	-6.39253
0.237405	-8.78572
2.56253	-7.31066
0.871037	-6.25115
1.45256	-5.1518
1.96869	-4.56449
1.96869	-4.56449
2.67638	-4.45568
3.93464	-4.00081
2.5177	-2.61793
3.19102	-1.61333
3.93559	-1.19749
2.5177	-2.61793
3.74792	-4.06321
3.93464	-4.00081
2.5177	-2.61793
4.56963	-3.32121
4.41443	-2.03691
3.93559	-1.19749
4.57561	-2.7457
4.41443	-2.03691
3.93559	-1.19749
5.15008	-1.9074
6.02356	-0.841004
5.57132	-0.0160404
5.62265	0.817414
6.13653	1.54619
5.57132	-0.0160404
5.8461	-0.663039
6.02356	-0.841004
5.57132	-0.0160404
6.01552	-0.01335
7.56794	0.301832
6.13653	1.54619
7.31438	2.98393
7.0147	3.35473
6.13653	1.54619
7.32365	2.05301
8.1062	1.8381
8.6984	5.65819
9.14165	5.13285
9.0006	3.65185
8.6984	5.65819
10.0453	5.42837
10.4104	6.64394
9.93036	7.23787
10.3558	6.74235
10.4104	6.64394
9.93036	7.23787
11.2986	7.63041
11.632	8.23429
9.93034	7.23795
12.3015	9.33825
13.2933	9.34767
12.7824	12.3135
13.5449	13.4068
14.5291	11.3362
12.7824	12.3135
13.6878	11.8823
14.5291	11.3363
14.5291	11.3362
13.1864	12.7401
13.0285	16.2051
13.0285	16.2051
12.2573	15.2969
13.298	12.7938
13.0285	16.2051
13.1592	15.3539
13.8143	14.7243
13.4245	17.7694
13.2699	18.4282
13.3502	19.7619
13.4245	17.7694
13.2982	15.7719
13.8143	14.7243
13.3502	19.7619
14.5027	18.6782
15.27	20.2329
13.3502	19.7619
13.673	14.7437
14.8986	16.4077
15.27	20.2329
14.7784	17.4083
15.5921	18.2832
15.27	20.2329
15.5309	17.0532
16.7384	18.8588
-11.5551	-31.3874
-10.9428	-30.4461
-10.5054	-29.6932
-10.5054	-29.6932
-9.96459	-28.8029
-4.94346	-17.9389
-10.5054	-29.6932
-10.0079	-30.5094
-9.4227	-31.376
-10.5054	-29.6932
-6.1726	-21.0799
-8.51031	-29.5936
-4.94346	-17.9389
-5.52659	-18.5806
-5.07362	-17.665
-4.94346	-17.9389
-6.7376	-20.1815
-8.51031	-29.5936
-5.07362	-17.665
-4.69523	-18.6617
-5.44811	-19.6302
-4.17825	-15.8815
-3.09909	-17.1664
-5.07355	-17.6649
-4.17825	-15.8815
-3.01993	-16.2157
-2.22509	-16.305
-2.82469	-14.3974
-1.87686	-13.8843
-1.36631	-13.0148
-2.82469	-14.3974
-3.88981	-15.6237
-2.22509	-16.305
-1.36631	-13.0148
-2.92705	-13.7696
-0.853399	-14.8826
-1.36631	-13.0148
-3.11303	-13.8491
-1.36623	-13.0148
-2.41339	-11.3045
-1.83786	-11.8094
-0.473094	-11.4573
-2.1561	-10.3586
-0.840974	-10.2311
0.481498	-9.93563
-1.06996	-8.67943
-0.263206	-8.09208
0.725944	-7.96507
2.56253	-7.31066
2.17763	-7.43799
2.56243	-7.3107
2.56253	-7.31066
2.05167	-9.79239
0.725944	-7.96507
2.56253	-7.31066
2.46981	-9.10548
2.56248	-7.31066
2.56243	-7.3107
2.12464	-6.47072
3.51386	-5.9349
2.56243	-7.3107
2.67277	-8.14666
2.56248	-7.31066
3.51386	-5.9349
3.39475	-4.55071
3.93464	-4.00081
3.51386	-5.9349
3.66391	-5.69507
5.42576	-5.34785
3.93464	-4.00081
4.15361	-4.44612
5.42576	-5.34785
4.41443	-2.03691
5.94155	-2.19853
6.02356	-0.841004
4.41443	-2.03691
5.42934	-3.00623
5.8692	-3.41611
4.41443	-2.03691
6.96324	-1.85621
6.99393	-1.84743
6.02356	-0.841004
6.5534	-2.45118
6.99393	-1.84743
6.02356	-0.841004
5.73711	-1.25839
7.87272	-0.0650508
7.56794	0.301832
7.59231	1.0939
8.1062	1.8381
8.1062	1.8381
8.64714	2.89054
9.0006	3.65185
8.1062	1.8381
8.40823	1.48331
8.22542	1.22543
9.0006	3.65185
9.98407	5.73561
10.4104	6.64394
9.0006	3.65185
10.4636	3.59339
10.0854	1.99376
11.632	8.23429
12.1717	7.39686
12.6266	6.51048
13.2933	9.34767
13.928	10.1151
14.3075	11.0361
13.2933	9.34767
14.4509	9.44687
16.3778	8.45374
14.3075	11.0361
14.4344	10.9051
14.5291	11.3363
14.3075	11.0361
12.0026	9.44327
16.1329	10.1865
14.5291	11.3363
12.6217	12.4911
13.298	12.7938
14.5291	11.3363
12.3464	10.3763
16.1329	10.1865
14.5291	11.3363
12.7053	11.7113
14.6557	11.5369
13.298	12.7938
13.2853	12.1345
14.6557	11.5369
13.8143	14.7243
15.3948	15.5076
15.678	15.4007
14.8986	16.4077
15.8955	16.3582
16.8266	16.7193
15.5921	18.2832
16.191	19.2189
16.7384	18.8588
15.5921	18.2832
15.9842	15.5859
16.8266	16.7193
15.5921	18.2832
16.6682	15.4769
16.7285	16.1942
16.7384	18.8588
17.0335	16.2805
16.7285	16.1942
-10.3305	-32.9689
-9.878	-32.2167
-9.4227	-31.376
-10.3305	-32.9689
-9.42524	-33.0563
-8.76719	-32.7173
-9.4227	-31.376
-8.97031	-32.1659
-8.76719	-32.7173
-8.51031	-29.5936
-6.26083	-20.3796
-5.44811	-19.6302
-8.51031	-29.5936
-5.99894	-21.9139
-7.33242	-31.3248
-8.51031	-29.5936
-5.94553	-21.043
-6.42778	-29.5405
-5.44811	-19.6302
-3.42863	-19.1644
-5.07355	-17.6649
-5.44811	-19.6302
-3.95054	-20.7277
-6.42778	-29.5405
-5.07355	-17.6649
-2.28937	-18.3908
-2.57328	-17.2059
-2.22509	-16.305
-1.87999	-17.35
-2.57328	-17.2059
-2.22509	-16.305
-1.21164	-16.7351
-0.691546	-16.4944
-0.853399	-14.8826
-1.85723	-13.9299
-1.36623	-13.0148
-0.853399	-14.8826
-1.85611	-15.7121
-0.691546	-16.4944
-1.36623	-13.0148
-0.979497	-12.4381
-0.473094	-11.4573
-1.36623	-13.0148
-1.53081	-14.1296
0.703877	-15.0428
-1.36623	-13.0148
-0.325574	-13.2589
0.651775	-13.1129
-0.473094	-11.4573
-0.42993	-10.8947
0.481498	-9.93563
-0.473094	-11.4573
-0.738539	-12.2663
0.651775	-13.1129
0.481498	-9.93563
0.0652609	-9.3758
0.725944	-7.96507
0.725944	-7.96507
2.56405	-9.03011
2.56248	-7.31066
0.725944	-7.96507
1.38507	-10.0261
1.79699	-9.63925
0.725944	-7.96507
3.68444	-10.6462
2.20766	-9.27739
2.56248	-7.31066
3.67568	-9.58461
2.20766	-9.27739
2.56248	-7.31066
4.73336	-8.53337
2.56249	-7.31061
4.54092	-7.07794
4.88468	-5.91941
5.42576	-5.34785
4.54092	-7.07794
4.52066	-7.64614
2.56249	-7.31061
4.54092	-7.07794
4.87681	-6.88596
6.7209	-6.80604
5.42576	-5.34785
5.43332	-6.15239
6.7209	-6.80604
5.42576	-5.34785
6.3127	-5.00843
7.3436	-4.75893
5.8692	-3.41611
6.50027	-4.44449
7.3436	-4.75893
5.8692	-3.41611
6.85698	-3.5501
7.88419	-3.40139
6.99393	-1.84743
7.36741	-2.60871
7.88419	-3.40139
7.87272	-0.0650508
8.10374	-0.982211
9	-1.73205
7.87272	-0.0650508
8.15541	-0.122497
9.85794	0.0947647
8.22542	1.22543
8.46978	-0.526393
9.85794	0.0947647
8.22542	1.22543
9.87353	1.05846
10.0854	1.99368
10.0854	1.99376
10.326	3.724
10.8259	4.48895
10.0854	1.99376
10.9877	2.1175
10.0854	1.99368
10.8259	4.48895
11.9753	5.11832
12.6266	6.51048
10.8259	4.48895
13.5393	2.71702
11.9212	2.82413
12.6266	6.51048
13.6304	6.77163
14.5516	7.76874
12.6266	6.51048
14.7287	4.19047
12.8313	4.59768
14.5516	7.76874
14.3855	8.32134
16.3778	8.45374
14.5516	7.76874
13.8393	6.47167
14.5517	7.7687
16.3778	8.45374
14.7477	9.26417
16.1329	10.1865
16.3778	8.45374
12.7676	7.33797
14.5517	7.7687
16.3778	8.45374
13.6084	8.3529
15.2696	8.38595
16.1329	10.1865
13.9058	10.1055
16.23	10.1258
14.6557	11.5369
14.9095	11.1303
16.23	10.1258
15.1136	13.4764
15.5424	14.7042
15.678	15.4007
15.678	15.4007
16.1555	16.0992
16.8266	16.7193
15.678	15.4007
16.2141	14.0712
17.0176	14.0435
16.8266	16.7193
16.4807	15.1211
16.7285	16.1942
16.8266	16.7193
16.9857	12.9757
17.5824	14.8792
16.8266	16.7193
17.1026	15.8432
18.1768	16.751
16.7285	16.1942
18.1631	14.5787
18.1768	16.751
-8.76719	-32.7173
-7.7878	-32.1635
-7.33242	-31.3248
-8.76719	-32.7173
-7.82875	-33.9283
-8.76715	-32.7174
-8.76719	-32.7173
-7.38195	-32.973
-7.33246	-31.3248
-7.33242	-31.3248
-4.13241	-22.9123
-5.33272	-31.2071
-6.42778	-29.5405
-3.67838	-21.1176
-5.33272	-31.2071
-6.42778	-29.5405
-3.70962	-20.1746
-1.77317	-19.8118
-2.57328	-17.2059
-1.49387	-16.6346
-0.691546	-16.4944
-0.691546	-16.4944
0.288302	-15.8542
0.703877	-15.0428
-0.691546	-16.4944
0.0637137	-17.1204
-0.29619	-16.7749
0.703877	-15.0428
1.00011	-15.1935
1.21471	-13.5746
0.651775	-13.1129
0.58831	-12.3426
1.5203	-11.6018
1.79699	-9.63925
1.83935	-10.602
1.79686	-9.63929
1.79699	-9.63925
2.27164	-10.5194
1.79692	-9.63927
2.20766	-9.27739
2.38507	-10.0261
1.79692	-9.63927
2.56249	-7.31061
5.40349	-7.75432
6.7209	-6.80604
2.56249	-7.31061
6.12333	-7.62054
6.72096	-6.80605
6.7209	-6.80604
7.16347	-4.18618
7.3436	-4.75893
6.7209	-6.80604
6.95265	-6.9039
7.5828	-4.99814
7.3436	-4.75893
7.30055	-3.87567
7.88419	-3.40139
7.3436	-4.75893
7.98442	-5.17476
7.88413	-3.40143
7.88419	-3.40139
8.35756	-2.09012
9	-1.73205
7.88419	-3.40139
7.70279	-4.11904
7.88413	-3.40143
9	-1.73205
9.25881	-0.330307
9.85794	0.0947647
9.85794	0.0947647
9.99885	0.686572
10.0854	1.99368
9.85794	0.0947647
10.0613	0.0537175
10.722	-0.727962
10.0854	1.99368
11.9208	1.08985
11.6564	0.983428
11.9212	2.82413
12.6089	1.77404
11.6564	0.983428
11.9212	2.82413
11.7786	2.89468
11.9212	2.82417
12.8313	4.59768
13.8857	3.56333
11.9212	2.82417
12.8313	4.59768
13.8302	4.53098
14.4074	5.88484
14.4538	5.78686
13.8962	6.36454
14.5517	7.7687
14.5517	7.7687
14.5705	7.43368
15.2696	8.38595
14.5517	7.7687
14.766	5.78904
16.2386	6.69226
15.2696	8.38595
15.8845	8.51521
17.2625	8.38827
16.23	10.1258
15.7787	11.3407
16.5611	12.097
16.23	10.1258
15.5	9.36196
17.2625	8.38827
16.23	10.1258
15.9848	10.3392
16.2301	10.1258
16.5611	12.097
16.0677	12.2917
17.0176	14.0435
16.5611	12.097
16.1925	10.6234
16.2301	10.1258
17.0176	14.0435
17.0789	14.0574
17.5824	14.8792
17.0176	14.0435
15.7859	12.8759
18.877	13.3589
17.5824	14.8792
18.35	15.1361
19.5212	15.2515
18.1768	16.751
18.5008	15.5581
18.925	17.1612
-8.76715	-32.7174
-8.54982	-31.1551
-7.33246	-31.3248
-8.76715	-32.7174
-7.35361	-32.8516
-7.33249	-31.3249
-7.33246	-31.3248
-5.94121	-31.614
-5.33272	-31.2071
-7.33246	-31.3248
-4.0179	-24.0393
-7.33249	-31.3249
-7.33246	-31.3248
-2.93686	-22.7241
-5.3537	-31.1297
-5.33272	-31.2071
-3.23327	-22.3134
-5.3537	-31.1297
-1.77317	-19.8118
-2.00621	-18.2772
-1.90904	-17.8505
-1.77317	-19.8118
-2.59014	-19.879
-3.61484	-30.1797
-1.90904	-17.8505
-2.02717	-16.0905
-0.29619	-16.7749
-1.90904	-17.8505
-0.755357	-19.7769
-0.103378	-18.7039
-1.90904	-17.8505
0.732628	-18.5772
-0.25929	-16.7289
-0.29619	-16.7749
-0.67219	-16.0462
1.31357	-15.5849
-0.29619	-16.7749
0.102535	-17.5083
-0.25929	-16.7289
-0.29619	-16.7749
0.121523	-16.6055
1.31363	-15.5849
1.31357	-15.5849
-0.291111	-14.0917
1.21471	-13.5746
1.31357	-15.5849
0.477531	-15.3407
1.31363	-15.5849
1.52034	-11.6018
1.95503	-10.3517
1.79686	-9.63929
1.79686	-9.63929
1.88551	-8.64322
1.79692	-9.63927
1.79686	-9.63929
2.59329	-10.2365
3.38973	-10.8336
1.79692	-9.63927
5.2906	-11.1728
4.98897	-9.62055
1.79692	-9.63927
5.65188	-10.2322
6.89129	-8.96976
5.86024	-8.61137
6.63519	-6.40399
6.72096	-6.80605
6.72096	-6.80605
6.978	-5.92336
7.5828	-4.99814
6.72096	-6.80605
6.6778	-6.78731
8.57963	-6.73032
7.5828	-4.99814
7.79151	-4.72742
7.88413	-3.40143
7.5828	-4.99814
8.19167	-6.77475
8.57957	-6.73027
7.5828	-4.99814
8.55012	-5.79365
8.9752	-3.57938
7.88413	-3.40143
9.00182	-3.2335
9.53655	-2.33736
7.88413	-3.40143
9.26033	-5.03062
8.9752	-3.57938
7.88413	-3.40143
9.7211	-4.1092
10.5637	-4.05379
9.53655	-2.33736
10.6268	-2.72203
10.722	-0.727962
10.722	-0.727962
11.1583	-1.60656
11.7425	-2.43859
11.6564	0.983412
12.1461	1.98438
11.6564	0.983428
11.6564	0.983412
10.9308	-0.643506
13.6437	1.06615
11.9212	2.82417
12.8573	4.18884
14.4074	5.88484
11.9212	2.82417
14.323	2.82445
13.8478	2.27981
11.9212	2.82417
14.2014	3.54543
14.8394	3.22164
14.4074	5.88484
14.8836	3.99697
16.2386	6.69226
16.2407	6.69244
16.9114	7.68271
17.2625	8.38827
16.2407	6.69244
17.0841	6.15507
16.2407	6.69251
17.2625	8.38827
16.8073	9.29317
16.2301	10.1258
17.2625	8.38827
16.4863	7.24229
16.2407	6.69251
17.2625	8.38827
17.0936	8.1745
17.2837	8.35738
16.2301	10.1258
17.2804	10.8135
18.1012	11.5156
16.2301	10.1258
17.4959	9.10702
17.2837	8.35738
18.1012	11.5156
18.3346	12.226
18.877	13.3589
18.1012	11.5156
17.7458	11.8833
20.086	11.7616
18.877	13.3589
19.1823	14.4976
19.5212	15.2515
19.5212	15.2515
18.0052	16.425
18.925	17.1612
19.5212	15.2515
18.4128	14.4147
20.6746	13.6244
19.5212	15.2515
19.1482	14.7582
19.5213	15.2515
18.925	17.1612
20.5735	14.2726
19.5213	15.2515
-7.33249	-31.3249
-6.44553	-32.1251
-5.3537	-31.1297
-7.33249	-31.3249
-5.4559	-33.3048
-5.15287	-31.8375
-5.3537	-31.1297
-4.63572	-31.1778
-3.61484	-30.1797
-5.3537	-31.1297
-2.32277	-22.9235
-5.15287	-31.8375
-3.61484	-30.1797
-0.777088	-19.0032
-0.103378	-18.7039
-3.61484	-30.1797
-1.60321	-21.1743
-4.41575	-31.3922
-3.61484	-30.1797
-0.895543	-19.8229
-2.65658	-30.4438
-0.103378	-18.7039
0.210924	-18.6056
-0.25929	-16.7289
-0.103378	-18.7039
-1.10536	-17.7888
1.54225	-17.5604
-0.25929	-16.7289
0.640302	-15.897
1.31363	-15.5849
-0.25929	-16.7289
1.42485	-18.8166
1.54225	-17.5604
1.31363	-15.5849
2.34924	-14.865
2.99036	-14.5138
2.99036	-14.5138
1.9262	-13.4484
3.02833	-12.7082
2.99036	-14.5138
2.75183	-15.131
2.99042	-14.5138
3.02833	-12.7082
3.14282	-13.6299
4.74076	-13.5431
3.02833	-12.7082
4.43025	-13.5964
5.11437	-11.612
3.38973	-10.8336
4.05167	-10.6163
4.98897	-9.62055
3.38973	-10.8336
5.77805	-12.9016
5.11437	-11.612
6.89129	-8.96976
7.2859	-9.37998
8.64666	-9.93813
6.89129	-8.96976
7.86389	-10.3048
8.75448	-8.25044
8.57963	-6.73032
9.30104	-5.68452
8.57957	-6.73027
8.57957	-6.73027
8.59615	-4.35422
8.9752	-3.57938
8.57957	-6.73027
8.47382	-6.29737
8.57969	-6.7303
8.57957	-6.73027
9.66671	-7.58627
9.94226	-5.28488
8.9752	-3.57938
10.2631	-5.04688
10.5637	-4.05379
8.9752	-3.57938
10.1606	-6.80823
9.94226	-5.28488
8.9752	-3.57938
10.742	-5.86068
10.9295	-4.01366
10.5637	-4.05379
11.0869	-3.22685
11.7425	-2.43859
10.5637	-4.05379
11.3982	-4.88611
10.9295	-4.01366
11.7425	-2.43859
12.2262	-3.26112
12.9367	-3.9697
11.7425	-2.43859
13.0187	-2.78525
13.7415	-2.35456
12.7227	-0.69273
13.186	0.23277
13.6437	1.06615
12.7227	-0.69273
13.2406	-0.796453
14.7283	-0.600615
13.6437	1.06615
13.214	0.922859
13.8478	2.27981
13.6437	1.06615
13.9994	-0.356796
15.5731	1.22477
13.8478	2.27981
14.3376	2.30455
14.8394	3.22164
13.8478	2.27981
14.9555	1.3862
15.6617	1.48344
14.8394	3.22164
15.5476	3.69964
16.0749	4.79138
16.0749	4.79138
14.2758	5.22282
16.2407	6.69237
16.0749	4.79138
15.7541	4.0452
16.835	3.1055
16.2407	6.69237
15.9204	3.96128
18.0364	4.7056
16.2407	6.69251
16.7919	7.48634
17.2837	8.35738
17.2837	8.35738
17.7756	9.20787
18.3692	10.0347
17.2837	8.35738
17.8288	7.41404
18.2675	6.59426
18.3692	10.0347
19.5796	10.8983
20.086	11.7616
18.3692	10.0347
18.0534	9.21041
19.2883	8.25752
20.086	11.7616
20.122	11.759
20.341	11.6643
20.6746	13.6244
19.001	14.3955
19.5213	15.2515
20.6746	13.6244
19.1042	12.7042
20.341	11.6643
20.6746	13.6244
19.5954	12.5319
20.6871	13.6211
-5.15287	-31.8375
-4.53617	-32.65
-4.41575	-31.3922
-5.15287	-31.8375
-4.65741	-33.2235
-4.87667	-34.1539
-4.41575	-31.3922
-4.27375	-29.7594
-2.65658	-30.4438
-4.41575	-31.3922
-0.704759	-21.784
-4.87667	-34.1539
-2.65658	-30.4438
0.849664	-17.8365
1.54225	-17.5604
-2.65658	-30.4438
0.0806113	-20.134
-2.77964	-31.5506
-2.65658	-30.4438
0.732765	-18.5772
-2.13174	-28.1267
1.54225	-17.5604
1.90833	-17.5694
1.3137	-15.5849
1.54225	-17.5604
1.9119	-18.3663
-2.13174	-28.1267
1.54225	-17.5604
1.86201	-17.486
3.15182	-16.3734
1.3137	-15.5849
3.09832	-16.0749
2.99042	-14.5138
1.3137	-15.5849
3.29011	-16.1716
3.15182	-16.3734
4.74076	-13.5431
5.19436	-12.3667
5.11437	-11.612
4.74076	-13.5431
4.13043	-14.0762
4.74084	-13.5431
4.74076	-13.5431
5.3772	-13.1215
6.64004	-12.8991
5.11437	-11.612
7.22458	-12.5914
5.11437	-11.612
5.11437	-11.612
7.95572	-13.1169
8.54711	-12.2825
5.11437	-11.612
8.08324	-10.4377
8.64666	-9.93813
5.11437	-11.612
6.53518	-11.8923
10.1991	-11.1815
8.64666	-9.93813
8.18086	-11.2373
10.1991	-11.1815
8.64666	-9.93813
7.71279	-10.2923
10.5166	-9.19724
8.75448	-8.25044
8.04677	-7.8302
8.57969	-6.7303
8.75448	-8.25044
8.24291	-9.70113
10.5166	-9.19724
8.57969	-6.7303
9.41106	-6.37299
9.94226	-5.28488
8.57969	-6.7303
9.9348	-9.26206
10.5166	-9.19717
8.57969	-6.7303
9.7289	-7.56724
10.5138	-7.19806
9.94226	-5.28488
11.716	-8.54673
10.5138	-7.19806
10.9295	-4.01366
12.9375	-3.98747
12.9367	-3.9697
10.9295	-4.01366
12.8613	-5.33552
14.9319	-3.87126
12.9367	-3.9697
12.7971	-5.08259
14.9319	-3.87126
12.9367	-3.9697
13.6507	-4.01805
14.7856	-3.2364
13.7415	-2.35456
14.2232	-1.38279
14.7283	-0.600615
13.7415	-2.35456
14.1896	-3.0304
14.7856	-3.2364
13.7415	-2.35456
14.5814	-2.15146
16.6829	-2.41468
14.7283	-0.600615
14.2412	-1.16444
15.5731	1.22477
14.7283	-0.600615
14.6413	-1.82121
16.6829	-2.41468
14.7283	-0.600615
14.656	-2.11219
16.7169	-0.41943
15.5731	1.22477
15.4606	0.422782
15.6617	1.48344
15.5731	1.22477
15.7458	-0.403757
17.5925	1.35956
15.6617	1.48344
16.3302	2.14821
16.835	3.1055
15.6617	1.48344
16.4559	0.417013
17.5925	1.35956
16.835	3.1055
17.4334	4.27886
18.0364	4.7056
18.0364	4.7056
16.8096	4.28334
19.9003	5.39411
18.2675	6.59418
19.0839	7.7262
18.2675	6.59426
18.2675	6.59418
17.9652	3.84638
19.9003	5.39411
18.2675	6.59426
18.7717	5.48566
22.2633	6.34897
18.2675	6.59426
19.0553	6.35738
21.2228	5.76499
19.2883	8.25752
20.4932	7.86997
21.2168	7.76127
20.7697	9.71071
19.0839	8.96422
21.2168	7.76127
20.7697	9.71071
20.0353	9.21431
19.8369	9.72562
20.341	11.6643
20.3595	11.146
21.7296	10.2284
-4.87667	-34.1539
-3.89981	-32.6383
-2.77964	-31.5506
-2.13174	-28.1267
-2.4021	-30.0454
3.15182	-16.3734
-2.13174	-28.1267
-1.65569	-31.4661
-1.92736	-32.8644
3.15182	-16.3734
3.9926	-15.832
4.83339	-15.2906
3.15182	-16.3734
4.18882	-17.5465
7.34206	-16.4669
4.83339	-15.2906
4.26544	-14.3942
4.74084	-13.5431
4.74084	-13.5431
6.59907	-14.3398
6.64004	-12.8991
4.74084	-13.5431
5.98656	-14.9601
6.11432	-14.9238
4.74084	-13.5431
7.94956	-16.1767
6.78985	-13.0878
6.64004	-12.8991
8.4307	-15.3973
6.78985	-13.0878
6.64004	-12.8991
9.44547	-14.4451
8.3139	-11.7958
8.54711	-12.2825
9.62358	-11.66
10.1991	-11.1815
10.1991	-11.1815
10.2933	-9.83046
10.5166	-9.19724
10.5166	-9.19724
10.9417	-9.65967
12.07	-10.4637
10.5166	-9.19717
10.4227	-9.92969
12.3641	-8.38379
10.5166	-9.19717
10.6398	-9.00869
14.0513	-7.28936
10.5138	-7.19806
11.8524	-7.23412
14.0513	-7.28936
10.5138	-7.19806
14.4122	-6.66671
13.8374	-5.33823
11.8799	-5.72906
14.3129	-4.26268
14.9319	-3.87126
11.8799	-5.72906
14.2004	-5.43377
16.4722	-4.89588
14.9319	-3.87126
14.2182	-3.73145
14.7856	-3.2364
14.7856	-3.2364
16.1336	-4.01396
16.7133	-2.73702
16.6829	-2.41468
17.1828	-1.51444
16.7169	-0.41943
16.6829	-2.41468
16.5593	-2.08113
18.6827	-2.34626
16.7169	-0.41943
17.0828	-1.40262
18.6827	-2.34626
17.5925	1.35956
17.7403	-0.502144
19.5599	0.965251
17.6566	1.28314
18.1562	0.342861
19.5599	0.965251
18.824	2.90873
19.2377	3.73105
19.9003	5.39411
18.824	2.90873
19.3119	2.35968
19.6515	1.08927
18.824	2.90873
20.4707	2.79467
21.578	0.564359
19.9003	5.39411
19.7198	2.433
21.678	4.43652
22.2633	6.34897
21.1027	5.27329
21.2228	5.76499
21.2228	5.76499
21.5889	7.1409
21.2168	7.76127
21.2228	5.76499
20.5508	4.61212
22.9826	4.7816
21.2168	7.76127
20.3347	7.18625
22.9551	6.78483
19.8369	9.72562
21.0498	7.7131
22.9551	6.78483
19.8369	9.72562
21.172	8.36164
21.6143	8.2269
21.7296	10.2284
21.3954	9.00478
21.6143	8.2269
-1.92295	-32.8547
-2.10073	-33.4262
-1.92736	-32.8644
-1.92295	-32.8547
-1.95178	-34.8161
2.57354	-34.2414
-1.92736	-32.8644
-1.25408	-32.3424
-0.532091	-31.3818
-0.532091	-31.3818
5.59972	-17.5293
7.34206	-16.4669
-0.532091	-31.3818
6.81814	-17.318
1.02396	-31.5709
7.34206	-16.4669
5.25575	-17.3978
1.02396	-31.5709
7.34206	-16.4669
6.01504	-16.7285
8.29424	-14.7051
6.11432	-14.9238
6.23105	-14.2916
6.78985	-13.0878
6.11432	-14.9238
6.49308	-16.2437
8.29424	-14.7051
6.11432	-14.9238
7.20934	-14.8077
9.24651	-12.9434
6.78985	-13.0878
9.63452	-15.1528
8.67226	-13.7634
8.3139	-11.7958
8.45256	-10.5162
10.199	-11.1816
10.199	-11.1816
10.6732	-10.0895
12.07	-10.4637
10.199	-11.1816
11.5605	-12.8871
10.199	-11.1817
10.199	-11.1816
11.7541	-12.238
12.1474	-10.7295
12.07	-10.4637
12.1344	-11.4894
12.1474	-10.7295
12.3641	-8.38379
13.8806	-7.84618
14.0513	-7.28936
12.3641	-8.38379
13.0982	-10.7247
14.0579	-10.1604
12.3641	-8.38379
12.617	-8.89237
15.3273	-8.7387
14.0513	-7.28936
14.5831	-9.10512
15.3273	-8.7387
13.8374	-5.33823
14.5509	-5.28652
16.4722	-4.89588
13.8374	-5.33823
14.2363	-6.8168
14.0514	-7.28934
13.8374	-5.33823
15.2328	-6.52352
14.5774	-5.5203
16.4722	-4.89588
15.7084	-6.05778
16.694	-2.92206
16.4722	-4.89588
15.4815	-6.83744
14.5774	-5.5203
16.694	-2.92206
15.9912	-4.2306
16.7133	-2.73702
16.694	-2.92206
17.5022	-6.96724
16.4722	-4.89581
16.694	-2.92206
16.8305	-5.89018
17.9783	-4.23802
16.7133	-2.73702
18.0203	-3.38653
18.6827	-2.34626
16.7133	-2.73702
17.8303	-4.22936
17.9783	-4.23794
18.6827	-2.34626
17.9573	-0.970266
20.0327	-0.92214
18.6827	-2.34626
17.3208	-2.68821
18.9725	-2.56257
20.0327	-0.92214
19.0414	-1.85441
18.9725	-2.56257
19.5599	0.965251
19.5985	-0.964859
19.6515	1.08927
19.5599	0.965251
19.6234	-0.873623
21.5216	0.516242
19.6515	1.08927
19.5861	0.690843
21.578	0.564359
21.578	0.564359
21.5198	2.16734
21.678	4.43652
21.578	0.564359
21.1281	1.48773
21.5781	0.564396
21.678	4.43652
21.9078	4.05046
22.9826	4.7816
21.678	4.43652
21.8583	2.01777
23.1107	1.88066
21.678	4.43652
22.2969	3.65231
23.6049	3.81843
22.9551	6.78475
21.1499	3.91595
24.5256	5.56983
22.9551	6.78483
23.5353	7.59932
22.9551	6.78482
22.9551	6.78483
23.949	6.89221
24.8997	7.20183
2.57354	-34.2414
1.92178	-31.751
0.754031	-32.2122
0.754031	-32.2122
2.15591	-31.779
4.57358	-30.7773
8.29424	-14.7051
3.11209	-30.1277
4.58536	-29.5508
8.29424	-14.7051
9.27037	-14.6903
2.75398	-28.7481
9.24651	-12.9434
8.96431	-13.0533
8.67226	-13.7634
9.24651	-12.9434
8.94537	-15.3113
2.75398	-28.7481
8.67226	-13.7634
9.51373	-12.6261
10.199	-11.1817
8.67226	-13.7634
11.1194	-15.6974
9.24654	-12.9434
8.67226	-13.7634
10.514	-14.3176
10.1989	-11.1817
10.199	-11.1817
12.9162	-13.1128
12.1474	-10.7295
10.199	-11.1817
11.0764	-13.8125
10.1989	-11.1817
12.1474	-10.7295
13.5497	-12.6306
11.5501	-12.6038
12.1474	-10.7295
13.3806	-12.1763
12.161	-10.7487
14.0579	-10.1604
13.9135	-9.64613
15.3273	-8.7387
14.0579	-10.1604
12.6074	-11.5846
12.161	-10.7487
14.0579	-10.1604
11.5046	-9.91618
14.058	-10.1604
15.3273	-8.7387
13.5248	-10.4042
14.058	-10.1604
15.3273	-8.7387
12.4547	-8.89539
15.386	-8.74867
14.0514	-7.28934
13.648	-7.20624
14.5774	-5.5203
14.0514	-7.28934
14.2633	-9.33906
15.386	-8.74867
16.4722	-4.89581
16.706	-4.70499
17.9783	-4.23802
16.4722	-4.89581
16.0709	-7.28184
16.0102	-6.84362
16.4722	-4.89581
17.5249	-6.10881
17.9408	-6.24522
17.9783	-4.23802
17.4879	-5.16986
17.9783	-4.23794
17.9783	-4.23802
17.2189	-6.99348
17.9408	-6.24522
17.9783	-4.23794
18.4711	-5.22068
17.9782	-4.23804
17.9783	-4.23794
19.285	-4.50718
19.8299	-4.31869
18.9725	-2.56257
19.5252	-1.78578
20.0712	-0.893659
18.9725	-2.56257
19.9572	-3.84727
19.8299	-4.31869
20.0712	-0.893659
20.9942	-0.607239
21.5216	0.516242
20.0712	-0.893659
20.3765	-4.01099
20.9697	-2.68265
20.0712	-0.893659
21.0689	-2.15998
22.3929	-1.28258
21.5216	0.516242
21.4169	-0.629698
21.5781	0.564396
21.5216	0.516242
21.0067	-2.57726
22.3929	-1.28258
21.5216	0.516242
22.0827	-1.29959
23.4667	0.000997242
21.5781	0.564396
21.9675	-0.450671
23.4667	0.000997242
21.5781	0.564396
22.8344	0.518463
23.4668	0.00102212
23.1107	1.88066
23.1154	2.96015
23.6049	3.81843
23.6049	3.81843
24.0803	4.73446
24.5256	5.56983
23.6049	3.81843
23.8677	3.50441
25.064	2.41464
23.6049	3.81843
22.4542	2.53905
25.6239	3.89182
24.5256	5.56983
23.3839	2.88109
25.6239	3.89182
24.5256	5.56983
24.0241	3.82147
26.3055	5.76865
22.9551	6.78482
24.3838	6.5292
24.8997	7.20183
22.9551	6.78482
24.2245	4.83841
26.3055	5.76865
4.57358	-30.7773
5.02825	-29.6141
4.58536	-29.5508
2.75398	-28.7481
4.66967	-27.4174
9.24654	-12.9434
2.75398	-28.7481
6.53057	-28.1455
7.87538	-28.8279
9.24654	-12.9434
9.72274	-12.0625
10.1989	-11.1817
9.24654	-12.9434
9.6597	-16.8076
8.48293	-26.7189
10.1989	-11.1817
9.66239	-13.059
11.5501	-12.6038
11.5501	-12.6038
12.0813	-12.0963
12.161	-10.7487
11.5501	-12.6038
10.478	-13.2162
9.66593	-13.1157
12.161	-10.7487
13.9077	-11.3609
14.058	-10.1604
12.161	-10.7487
13.2868	-12.2873
12.161	-10.7486
14.058	-10.1604
15.1642	-11.1086
12.161	-10.7486
14.058	-10.1604
13.5086	-11.2994
16.9425	-10.0045
15.386	-8.74867
13.5995	-9.86038
15.386	-8.74858
14.0515	-7.28932
14.6063	-7.76617
16.0102	-6.84362
16.0102	-6.84362
16.495	-5.74151
17.9408	-6.24522
16.0102	-6.84362
17.6734	-8.64713
17.9408	-6.24531
17.9408	-6.24522
17.8886	-6.37457
17.9782	-4.23804
17.9408	-6.24522
18.4643	-8.74191
17.9408	-6.24531
17.9782	-4.23804
19.8264	-6.07086
20.3085	-5.82086
19.8299	-4.31869
20.6433	-5.40808
20.3085	-5.82086
19.8299	-4.31869
20.8921	-4.45446
21.8106	-4.49599
20.9697	-2.68265
21.8592	-4.13728
21.8106	-4.49599
22.3929	-1.28258
22.9948	-0.850114
23.4667	0.000997242
22.3929	-1.28258
23.4386	-1.95814
24.3255	-1.79584
23.4667	0.000997242
23.4599	-1.6969
24.3255	-1.79584
23.4668	0.00102212
24.9098	-0.525377
25.434	-0.157051
23.4668	0.00102212
25.0849	0.750652
25.5844	1.82739
25.064	2.41464
25.3261	3.16695
25.6239	3.89182
25.064	2.41464
23.9043	1.38802
25.5844	1.82739
25.064	2.41464
24.897	1.5022
27.1071	2.52775
7.18776	-30.7027
7.53157	-29.7653
7.87538	-28.8279
7.87538	-28.8279
9.43225	-28.7725
10.5796	-28.6688
8.48293	-26.7189
9.67216	-26.1958
10.1989	-11.1818
8.48293	-26.7189
8.93242	-15.6128
10.5796	-28.6688
8.48293	-26.7189
8.43924	-17.2163
11.1566	-26.8851
10.1989	-11.1818
10.0919	-15.8938
9.87544	-25.3638
9.66593	-13.1157
9.98001	-13.375
11.0228	-12.3787
11.0228	-12.3787
11.4205	-11.9555
12.161	-10.7486
11.0228	-12.3787
12.1277	-12.7336
12.8677	-13.1453
12.161	-10.7486
15.1642	-12.8406
12.8677	-13.1453
12.161	-10.7486
13.1077	-12.4507
14.0925	-11.2617
16.9425	-10.0045
14.6462	-10.2634
15.386	-8.74858
16.9425	-10.0045
14.1424	-12.8669
14.0925	-11.2617
15.386	-8.74858
14.8522	-9.3666
15.386	-8.74849
15.386	-8.74849
17.5733	-8.75848
17.9408	-6.24531
15.386	-8.74849
16.0598	-8.44537
17.1025	-9.68557
17.9408	-6.24531
19.0084	-10.2381
16.9537	-7.70364
17.9408	-6.24531
19.5106	-9.43311
18.3687	-6.36351
19.4141	-7.57605
18.3386	-7.82421
18.3687	-6.36351
19.4141	-7.57605
20.7429	-7.99323
18.3688	-6.36346
20.3085	-5.82086
21.2596	-5.67408
21.8106	-4.49599
21.8106	-4.49599
21.8593	-4.62514
21.9245	-4.26343
21.8106	-4.49599
21.1103	-6.1362
22.0424	-6.37148
21.8106	-4.49599
23.4901	-5.38105
23.6761	-5.20547
21.9245	-4.26343
23.4815	-2.62679
24.3255	-1.79584
21.9245	-4.26343
23.5127	-4.61841
23.6761	-5.20547
24.3255	-1.79584
24.829	-2.28947
23.5514	-3.20717
25.434	-0.157051
25.1204	0.933929
25.5844	1.82739
25.434	-0.157051
25.4184	-0.460977
25.233	-2.11563
25.5844	1.82739
27.0646	2.15603
27.1071	2.52775
25.5844	1.82739
24.6239	-1.25347
27.2523	0.714762
25.5844	1.82739
24.1146	0.293157
29	1.73205
27.1071	2.52775
26.1965	1.56169
25.624	3.89179
27.1071	2.52775
25.8796	-0.177225
29	1.73205
10.5796	-28.6688
11.0774	-27.8481
11.1566	-26.8851
10.5796	-28.6688
10.104	-28.6485
10.7307	-27.5475
11.1566	-26.8851
11.8343	-27.6226
10.7307	-27.5475
11.1566	-26.8851
10.5611	-18.0698
12.8294	-27.1562
9.87544	-25.3638
10.6528	-17.3709
12.8294	-27.1562
9.87544	-25.3638
11.4764	-16.7378
14.512	-24.8961
11.2544	-14.334
12.3694	-14.0458
12.8677	-13.1453
11.2544	-14.334
12.4806	-15.6456
14.512	-24.8961
11.2544	-14.334
13.0547	-14.9994
13.085	-15.1342
12.8677	-13.1453
14.1947	-13.5606
14.0925	-11.2617
12.8677	-13.1453
14.1823	-13.1555
14.8686	-13.1013
14.0925	-11.2617
14.8048	-10.6435
15.3114	-9.63167
14.0925	-11.2617
15.1126	-13.8847
14.8686	-13.1013
14.0925	-11.2617
15.9844	-12.6774
16.0533	-11.4832
15.3114	-9.63167
15.5111	-10.3396
17.1025	-9.68557
17.1025	-9.68557
17.17	-9.26293
18.6645	-8.47903
16.9537	-7.70364
16.9811	-5.98926
18.3687	-6.36351
16.9537	-7.70364
18.2274	-9.31499
18.6645	-8.47903
16.9537	-7.70364
17.219	-10.3461
18.4165	-6.50903
18.3687	-6.36351
20.8593	-10.9846
18.4165	-6.50903
18.3687	-6.36351
19.6785	-9.47468
18.4823	-6.47083
18.3688	-6.36346
21.4599	-7.63498
22.0424	-6.37148
18.3688	-6.36346
21.9429	-9.63279
18.4823	-6.47083
18.3688	-6.36346
22.5936	-9.0674
20.1964	-7.07193
22.0424	-6.37148
22.3922	-7.85755
20.1964	-7.07193
22.0424	-6.37148
22.1138	-6.80439
23.8773	-7.16643
23.6761	-5.20547
22.9765	-4.44196
23.5514	-3.20717
23.6761	-5.20547
23.6346	-5.70814
23.6762	-5.20545
23.5514	-3.20717
24.7243	-4.58209
23.6762	-5.20545
25.233	-2.11563
27.6262	-1.37467
27.2156	-1.85241
27.2523	0.714762
27.698	-0.476192
27.2156	-1.85241
12.8294	-27.1562
16.1936	-23.4991
14.512	-24.8961
14.512	-24.8961
12.9134	-23.9493
13.085	-15.1342
14.512	-24.8961
14.0253	-25.5104
17.9834	-22.7466
13.085	-15.1342
14.4612	-14.0245
14.8686	-13.1013
13.085	-15.1342
14.6419	-15.8723
17.9834	-22.7466
13.085	-15.1342
14.7623	-14.2366
17.9833	-22.7467
14.8686	-13.1013
16.061	-12.7404
16.0533	-11.4832
16.0533	-11.4832
16.6817	-10.8468
17.2983	-9.92324
16.0533	-11.4832
16.7877	-12.6665
16.0961	-22.0831
16.0533	-11.4832
17.1841	-11.8062
17.2983	-9.92329
17.2983	-9.92324
15.9378	-9.09567
18.6645	-8.47903
17.2983	-9.92324
16.5545	-10.9561
17.2983	-9.92329
17.2983	-9.92324
16.6917	-10.9365
17.2983	-9.92323
18.6645	-8.47903
17.7051	-11.4838
18.6925	-8.47504
18.4165	-6.50903
17.5644	-7.47531
18.4823	-6.47083
18.4823	-6.47083
18.9191	-5.9591
20.1964	-7.07193
20.1964	-7.07193
20.6888	-7.81611
20.2658	-7.3597
20.1964	-7.07193
23.1063	-8.80125
22.15	-6.67432
23.8773	-7.16643
23.4376	-8.01517
22.15	-6.67432
23.6762	-5.20545
24.8471	-4.94517
25.3298	-4.09001
23.6762	-5.20545
24.8287	-6.7083
23.9449	-5.7809
25.3298	-4.09001
26.2547	-2.85165
27.2156	-1.85241
25.3298	-4.09001
27.9267	-5.75786
26.5112	-5.69229
17.9833	-22.7467
18.6354	-20.2165
16.0961	-22.0831
16.0961	-22.0831
18.5397	-21.5488
20.2938	-19.4393
17.2983	-9.92329
20.933	-19.5957
20.2938	-19.4393
17.2983	-9.92329
17.4954	-11.7972
21.1741	-17.636
17.2983	-9.92323
17.5434	-10.2762
18.6925	-8.47504
17.2983	-9.92323
17.5001	-12.0245
21.9833	-15.8185
18.6925	-8.47504
17.4829	-10.2988
18.6925	-8.47495
18.6925	-8.47495
20.2131	-10.4956
19.3944	-10.3453
18.6925	-8.47495
19.7561	-9.96339
19.3944	-10.3453
20.2658	-7.3597
22.0543	-7.97345
22.15	-6.67432
20.2658	-7.3597
23.1514	-9.08556
21.0315	-9.19302
22.15	-6.67432
23.4149	-6.39216
23.9449	-5.7809
23.9449	-5.7809
25.8938	-6.49995
26.5112	-5.69229
20.2938	-19.4393
20.4024	-17.762
21.1741	-17.636
21.1741	-17.636
21.7312	-16.8043
21.9833	-15.8185
19.3944	-10.3453
23.5932	-13.2696
19.3944	-10.3453
19.3944	-10.3453
19.5767	-9.18883
21.0315	-9.19302
