-28.0066	10.3956
-27.5034	11.2557
-26.9864	12.1175
-28.0066	10.3956
-27.5137	9.53846
-27.0114	8.65093
-28.0066	10.3956
-27.0059	10.3898
-25.9928	10.383
-26.9864	12.1175
-26.4951	12.9838
-26.0035	13.866
-26.9864	12.1175
-26.503	11.2639
-25.9928	10.383
-26.0035	13.866
-25.4952	14.7092
-25.0068	15.5749
-25.0068	15.5749
-24.5014	14.7239
-24.0113	13.8613
-25.0068	15.5749
-24.0105	15.5817
-22.995	15.5818
-23.9973	17.3099
-23.5059	18.1836
-22.9933	19.0447
-23.9973	17.3099
-22.9885	17.3102
-21.9974	17.3292
-22.9933	19.0447
-22.5103	18.1807
-21.9974	17.3292
-29.0077	5.18457
-28.5002	4.33177
-28.0061	3.45288
-29.0077	5.18457
-28.0084	5.1946
-27.0146	5.20377
-28.0123	6.91753
-27.4996	7.78498
-27.0114	8.65093
-28.0123	6.91753
-27.4955	6.06963
-27.0146	5.20377
-28.0123	6.91753
-27.0122	6.92063
-26.0054	6.91734
-27.0114	8.65093
-26.4859	9.53697
-25.9928	10.383
-27.0114	8.65093
-26.4976	7.79015
-26.0054	6.91734
-25.9928	10.383
-25.4975	11.2517
-24.9872	12.1301
-25.9928	10.383
-24.998	10.4071
-23.9935	10.3957
-24.9872	12.1301
-24.5009	12.9767
-24.0113	13.8613
-24.0113	13.8613
-23.4943	14.7325
-22.995	15.5818
-24.0113	13.8613
-23.4997	13.0016
-22.9915	12.1142
-24.0113	13.8613
-23.007	13.8522
-21.9916	13.8472
-22.995	15.5818
-22.5067	16.4601
-21.9974	17.3292
-22.995	15.5818
-21.9973	15.5893
-21.0041	15.5993
-21.9974	17.3292
-21.4863	18.177
-20.9972	19.066
-21.9974	17.3292
-21.4889	16.4558
-21.0041	15.5993
-21.9974	17.3292
-21.0105	17.3308
-19.9918	17.3319
-20.9972	19.066
-20.4891	19.9134
-19.9954	20.7801
-20.9972	19.066
-20.4939	18.1756
-19.9918	17.3319
-20.9972	19.066
-20.0132	19.0654
-19.0141	19.0596
-19.9954	20.7801
-19.5123	19.9232
-19.0141	19.0596
-28.9994	1.74204
-28.4927	0.880407
-27.9943	0.00331371
-28.9994	1.74204
-27.9973	1.72084
-26.9931	1.72031
-28.0061	3.45288
-27.4976	4.31868
-27.0146	5.20377
-28.0061	3.45288
-27.5146	2.58806
-26.9931	1.72031
-27.0146	5.20377
-26.4958	4.34498
-25.9874	3.4554
-27.0146	5.20377
-26.0011	5.1993
-25.0136	5.18947
-26.0054	6.91734
-25.4963	7.80381
-25.0118	8.64812
-25.0118	8.64812
-24.5128	9.52001
-23.9935	10.3957
-25.0118	8.64812
-24.4981	7.80176
-23.9953	6.93719
-25.0118	8.64812
-24.0076	8.67458
-22.9912	8.66006
-23.9935	10.3957
-22.9978	10.387
-21.9939	10.3951
-22.9915	12.1142
-22.5129	11.2589
-21.9939	10.3951
-22.9915	12.1142
-21.9907	12.1148
-20.9983	12.1201
-21.9916	13.8472
-21.4937	14.7337
-21.0041	15.5993
-21.9916	13.8472
-21.5059	13.0053
-20.9983	12.1201
-21.9916	13.8472
-21.0018	13.8462
-19.9853	13.8441
-21.0041	15.5993
-20.0145	15.5944
-19.0148	15.6006
-19.9918	17.3319
-19.4999	16.4479
-19.0148	15.6006
-19.0141	19.0596
-18.5049	18.1989
-17.9883	17.3222
-17.0055	22.5216
-16.4851	23.3892
-16.004	24.2363
-17.0055	22.5216
-16.4952	21.6357
-15.9881	20.7956
-16.004	24.2363
-15.5029	23.3882
-15.0148	22.5181
-15.0068	25.9869
-14.5135	25.1154
-14.0048	24.2529
-15.0068	25.9869
-14.0019	25.9794
-12.9937	25.9836
-28.9931	-1.73365
-28.5054	-0.858262
-27.9943	0.00331371
-28.9931	-1.73365
-28.5093	-2.60837
-28.01	-3.4687
-27.9943	0.00331371
-27.4963	0.875927
-26.9931	1.72031
-26.9931	1.72031
-26.506	0.873677
-25.989	0.00588612
-25.0136	5.18947
-24.495	4.32613
-23.9989	3.47827
-23.9953	6.93719
-23.4883	7.79906
-22.9912	8.66006
-23.9953	6.93719
-23.5021	6.04876
-23.0062	5.19077
-23.9953	6.93719
-23.015	6.91898
-22.0027	6.91745
-22.9912	8.66006
-22.5077	9.5221
-21.9939	10.3951
-22.9912	8.66006
-22.5027	7.78313
-22.0027	6.91745
-22.9912	8.66006
-22.0148	8.66639
-20.9886	8.66135
-21.9939	10.3951
-21.4963	11.2716
-20.9983	12.1201
-21.9939	10.3951
-21.5082	9.51943
-20.9886	8.66135
-21.9939	10.3951
-20.9875	10.4052
-19.9866	10.4032
-20.9983	12.1201
-20.4947	12.9906
-19.9853	13.8441
-20.9983	12.1201
-20.4929	11.2542
-19.9866	10.4032
-20.9983	12.1201
-19.9932	12.1135
-18.987	12.1289
-19.9853	13.8441
-19.4939	14.71
-19.0148	15.6006
-19.9853	13.8441
-19.5102	12.9936
-18.987	12.1289
-19.0148	15.6006
-18.4856	16.4489
-17.9883	17.3222
-19.0148	15.6006
-18.0014	15.5872
-16.9935	15.5815
-17.9883	17.3222
-16.9945	17.328
-15.9949	17.3059
-17.0109	19.052
-16.4924	19.9098
-15.9881	20.7956
-17.0109	19.052
-16.0062	19.0564
-14.9972	19.044
-15.9881	20.7956
-15.504	21.642
-15.0148	22.5181
-15.9881	20.7956
-15.5107	19.9166
-14.9972	19.044
-15.9881	20.7956
-14.9888	20.7935
-13.9879	20.7821
-15.0148	22.5181
-14.5032	23.3968
-14.0048	24.2529
-14.0048	24.2529
-13.4951	25.1109
-12.9937	25.9836
-14.0048	24.2529
-13.5011	23.3788
-12.9987	22.5303
-28.01	-3.4687
-27.5022	-2.59754
-27.0025	-1.73033
-28.01	-3.4687
-27.5135	-4.32755
-26.9951	-5.19831
-28.01	-3.4687
-26.9966	-3.46877
-25.9897	-3.45365
-27.0025	-1.73033
-26.5022	-2.58564
-25.9897	-3.45365
-27.0025	-1.73033
-25.9953	-1.74114
-24.9897	-1.73445
-25.989	0.00588612
-25.5047	0.87615
-24.9924	1.73162
-25.989	0.00588612
-25.4974	-0.860736
-24.9897	-1.73445
-25.989	0.00588612
-25.0107	0.00323832
-23.985	-0.00410129
-24.9924	1.73162
-24.5117	0.865534
-23.985	-0.00410129
-23.9989	3.47827
-23.4916	4.33321
-23.0062	5.19077
-23.9989	3.47827
-23.5067	2.59823
-23.0138	1.71716
-23.9989	3.47827
-22.9877	3.4697
-22.0076	3.47506
-22.0027	6.91745
-21.0148	6.9376
-20.0125	6.92289
-20.9886	8.66135
-20.5132	9.53463
-19.9866	10.4032
-20.9886	8.66135
-20.4977	7.78554
-20.0125	6.92289
-20.9886	8.66135
-20.007	8.66145
-18.9875	8.67522
-19.9866	10.4032
-19.4991	9.52878
-18.9875	8.67522
-18.987	12.1289
-18.507	12.9927
-17.9945	13.8439
-18.987	12.1289
-18.4939	11.2581
-17.9982	10.3808
-17.9945	13.8439
-17.4974	12.996
-16.9854	12.1198
-17.9945	13.8439
-17.0096	13.8592
-16	13.8637
-16.9935	15.5815
-16.4885	14.7137
-16	13.8637
-16.9935	15.5815
-15.9994	15.5759
-14.9968	15.5898
-15.9949	17.3059
-15.5133	18.1831
-14.9972	19.044
-15.9949	17.3059
-15.4956	16.4491
-14.9968	15.5898
-15.9949	17.3059
-14.9859	17.3197
-13.9969	17.3065
-13.9879	20.7821
-13.4914	21.6359
-12.9987	22.5303
-13.9879	20.7821
-13.4876	19.9264
-12.9955	19.0531
-13.9879	20.7821
-12.9994	20.7838
-11.9961	20.7994
-12.9987	22.5303
-12.4986	21.6646
-11.9961	20.7994
-11.9966	24.2569
-11.4998	25.1281
-11.0128	25.9948
-11.0128	25.9948
-10.4997	26.8572
-10.003	27.7044
-11.0128	25.9948
-10.4987	25.1106
-10.0024	24.2636
-11.0128	25.9948
-9.99142	25.9808
-9.00498	25.9839
-10.003	27.7044
-8.99528	27.7109
-8.00141	27.707
-27.9851	-6.91594
-27.4906	-7.78404
-26.9982	-8.66501
-26.9951	-5.19831
-26.5089	-6.07156
-26.0099	-6.94039
-25.9897	-3.45365
-25.4884	-2.58817
-24.9897	-1.73445
-25.9897	-3.45365
-24.9871	-3.47353
-23.9999	-3.45401
-24.9897	-1.73445
-24.4876	-0.856981
-23.985	-0.00410129
-24.9897	-1.73445
-24.5038	-2.58518
-23.9999	-3.45401
-23.985	-0.00410129
-23.5082	-0.878841
-22.9876	-1.72374
-23.985	-0.00410129
-23.0116	-0.00409669
-22.0076	-0.0031433
-23.0138	1.71716
-22.4861	0.864489
-22.0076	-0.0031433
-22.0076	3.47506
-21.4975	4.33628
-20.9996	5.20249
-20.9996	5.20249
-20.4892	4.31928
-19.9889	3.45537
-20.0125	6.92289
-19.4943	7.79634
-18.9875	8.67522
-20.0125	6.92289
-19.4868	6.07635
-19.0138	5.1939
-18.9875	8.67522
-18.4963	9.52967
-17.9982	10.3808
-17.9982	10.3808
-17.5101	11.26
-16.9854	12.1198
-17.9982	10.3808
-17.4885	9.5312
-17.0037	8.66069
-16.9854	12.1198
-16.503	12.978
-16	13.8637
-16.9854	12.1198
-16.495	11.2553
-16.0086	10.39
-16.9854	12.1198
-16.004	12.1121
-15.012	12.1099
-16	13.8637
-15.4862	14.7369
-14.9968	15.5898
-16	13.8637
-14.9861	13.8492
-14.0061	13.8524
-14.9968	15.5898
-14.501	16.4566
-13.9969	17.3065
-14.9968	15.5898
-14.0082	15.6032
-12.9927	15.5755
-13.9969	17.3065
-13.494	18.1737
-12.9955	19.0531
-13.9969	17.3065
-12.9924	17.3246
-11.9862	17.318
-12.9955	19.0531
-12.4983	19.9182
-11.9961	20.7994
-12.9955	19.0531
-12.5044	18.1739
-11.9862	17.318
-12.9955	19.0531
-11.9933	19.0631
-11.0106	19.0576
-11.9961	20.7994
-11.4959	19.9292
-11.0106	19.0576
-11.0055	22.5104
-10.4984	23.3943
-10.0024	24.2636
-11.0055	22.5104
-10.5143	21.6587
-9.98665	20.7797
-10.0024	24.2636
-9.49415	25.1061
-9.00498	25.9839
-10.0024	24.2636
-9.49245	23.37
-9.01312	22.5235
-10.0024	24.2636
-9.01458	24.2531
-7.99953	24.2478
-9.00498	25.9839
-8.4907	26.8431
-8.00141	27.707
-9.00498	25.9839
-7.99732	25.9701
-6.98941	25.9739
-8.00141	27.707
-7.01084	27.7209
-5.99439	27.7017
-27.9889	-10.4067
-27.5145	-11.2533
-27.0126	-12.1378
-27.9889	-10.4067
-27.008	-10.3777
-26.0101	-10.3871
-26.9982	-8.66501
-26.5104	-7.78855
-26.0099	-6.94039
-26.9982	-8.66501
-26.01	-8.67332
-25.0078	-8.66796
-26.0099	-6.94039
-25.5019	-6.05841
-24.9858	-5.2046
-26.0099	-6.94039
-25.5022	-7.7809
-25.0078	-8.66796
-26.0099	-6.94039
-24.9863	-6.93646
-24.0023	-6.92339
-24.9858	-5.2046
-24.5043	-4.31765
-23.9999	-3.45401
-24.9858	-5.2046
-24.0087	-5.19224
-23.0019	-5.19907
-23.9999	-3.45401
-23.4908	-2.60367
-22.9876	-1.72374
-23.9999	-3.45401
-23.0078	-3.46741
-21.9988	-3.46981
-22.9876	-1.72374
-22.5037	-0.853913
-22.0076	-0.0031433
-22.0076	-0.0031433
-21.5121	0.873883
-21.0075	1.73889
-22.0076	-0.0031433
-21.5066	-0.878269
-20.9856	-1.73589
-21.0075	1.73889
-20.4873	2.60967
-19.9889	3.45537
-21.0075	1.73889
-20.5016	0.857432
-20.0055	-0.00595963
-21.0075	1.73889
-20.0127	1.72168
-19.0037	1.72477
-19.9889	3.45537
-19.4923	4.33992
-19.0138	5.1939
-19.9889	3.45537
-19.0142	3.453
-18.0105	3.46902
-19.0138	5.1939
-18.5122	6.07014
-18.0135	6.92982
-19.0138	5.1939
-18.5073	4.33053
-18.0105	3.46902
-19.0138	5.1939
-17.9914	5.2028
-16.9926	5.21105
-17.0037	8.66069
-15.9993	8.64671
-14.9861	8.66602
-16.0086	10.39
-14.9903	10.3999
-13.9989	10.4065
-14.0061	13.8524
-13.488	14.7118
-12.9927	15.5755
-14.0061	13.8524
-13.0014	13.8494
-12.0085	13.8472
-12.9927	15.5755
-12.5089	16.4518
-11.9862	17.318
-12.9927	15.5755
-12.4878	14.7155
-12.0085	13.8472
-12.9927	15.5755
-12.0053	15.5971
-11.005	15.5766
-11.9862	17.318
-11.5142	16.4608
-11.005	15.5766
-11.0106	19.0576
-10.5076	19.9177
-9.98665	20.7797
-11.0106	19.0576
-10.505	18.1887
-10.0094	17.3099
-11.0106	19.0576
-9.99619	19.0386
-9.00858	19.0657
-9.98665	20.7797
-9.50504	21.6473
-9.01312	22.5235
-9.98665	20.7797
-9.48523	19.9308
-9.00858	19.0657
-9.98665	20.7797
-9.0136	20.7812
-7.9972	20.775
-7.99953	24.2478
-7.00838	24.2417
-5.99673	24.2484
-6.98941	25.9739
-6.49087	26.8487
-5.99439	27.7017
-6.98941	25.9739
-6.48886	25.1223
-5.99673	24.2484
-6.98941	25.9739
-6.00124	25.9896
-5.00801	25.9673
-5.99439	27.7017
-5.49008	26.8459
-5.00801	25.9673
-27.0126	-12.1378
-26.5059	-11.2698
-26.0101	-10.3871
-27.0126	-12.1378
-26.5033	-13.0005
-26.0026	-13.855
-26.0101	-10.3871
-25.505	-9.51409
-25.0078	-8.66796
-25.0078	-8.66796
-24.5009	-7.80395
-24.0023	-6.92339
-24.0023	-6.92339
-23.5111	-7.79147
-22.9909	-8.66052
-24.0023	-6.92339
-23.0003	-6.91544
-21.9915	-6.94101
-23.0019	-5.19907
-22.4942	-4.32382
-21.9988	-3.46981
-23.0019	-5.19907
-22.4935	-6.07652
-21.9915	-6.94101
-21.9988	-3.46981
-21.5048	-4.33523
-20.9962	-5.19511
-20.9856	-1.73589
-20.5082	-2.61197
-19.9858	-3.46999
-20.0055	-0.00595963
-19.5137	-0.877333
-18.9997	-1.74672
-20.0055	-0.00595963
-18.9951	0.0109966
-18.0008	0.0105286
-16.9926	5.21105
-16.5146	6.06995
-16.0063	6.93252
-16.9926	5.21105
-16.0098	5.18478
-14.9871	5.19436
-16.0063	6.93252
-15.4887	7.8005
-14.9861	8.66602
-16.0063	6.93252
-15.5039	6.07598
-14.9871	5.19436
-14.9861	8.66602
-14.5082	9.52394
-13.9989	10.4065
-14.9861	8.66602
-14.5122	7.80766
-14.0065	6.91533
-14.9861	8.66602
-14.0063	8.65964
-12.9985	8.66075
-13.9989	10.4065
-13.5005	11.2449
-12.9913	12.1176
-13.9989	10.4065
-12.9927	10.4019
-12.0076	10.3971
-12.9913	12.1176
-12.5149	12.9974
-12.0085	13.8472
-12.0085	13.8472
-11.4971	14.7172
-11.005	15.5766
-10.0094	17.3099
-9.50844	18.1795
-9.00858	19.0657
-10.0094	17.3099
-9.50411	16.4529
-9.0047	15.5983
-10.0094	17.3099
-9.01228	17.3125
-8.00409	17.3163
-9.00858	19.0657
-8.50415	19.9108
-7.9972	20.775
-7.9972	20.775
-7.51151	19.906
-7.00291	19.0448
-7.9972	20.775
-6.9912	20.7788
-6.01419	20.7939
-7.00435	22.5309
-6.00994	22.5256
-5.008	22.5203
-5.99673	24.2484
-5.50911	25.1094
-5.00801	25.9673
-5.00801	25.9673
-4.49535	26.8458
-4.01386	27.7121
-5.00801	25.9673
-4.50507	25.1286
-3.98786	24.2602
-5.00801	25.9673
-4.01042	25.995
-3.00794	25.9663
-4.01386	27.7121
-3.51368	28.5747
-2.99584	29.4555
-4.01386	27.7121
-3.49619	26.8441
-3.00794	25.9663
-4.01386	27.7121
-2.99909	27.7132
-1.99708	27.7103
-2.99584	29.4555
-2.49454	28.5922
-1.99708	27.7103
-26.0026	-13.855
-25.513	-14.732
-24.993	-15.577
-26.0026	-13.855
-25.0067	-13.8428
-23.9985	-13.8481
-24.9869	-12.1248
-24.5104	-11.2673
-23.9913	-10.397
-24.9869	-12.1248
-24.4945	-12.9869
-23.9985	-13.8481
-24.9869	-12.1248
-24.0113	-12.1359
-22.9911	-12.113
-23.9913	-10.397
-23.4868	-9.53161
-22.9909	-8.66052
-23.9913	-10.397
-23.4998	-11.2526
-22.9911	-12.113
-23.9913	-10.397
-23.0114	-10.3838
-21.9985	-10.3975
-22.9909	-8.66052
-22.4996	-7.7865
-21.9915	-6.94101
-22.9909	-8.66052
-22.5046	-9.52636
-21.9985	-10.3975
-22.9909	-8.66052
-21.9968	-8.64801
-20.99	-8.65506
-21.9915	-6.94101
-21.504	-7.78891
-20.99	-8.65506
-21.9915	-6.94101
-21.0025	-6.92736
-20.0001	-6.92915
-19.9858	-3.46999
-19.5028	-2.5904
-18.9997	-1.74672
-19.9858	-3.46999
-19.4905	-4.33917
-19.0052	-5.18192
-19.9858	-3.46999
-18.9894	-3.46399
-18.0025	-3.4606
-18.9997	-1.74672
-18.4885	-0.867123
-18.0008	0.0105286
-18.9997	-1.74672
-18.49	-2.60967
-18.0025	-3.4606
-18.9997	-1.74672
-17.9916	-1.71902
-17.0099	-1.74005
-18.0008	0.0105286
-17.4913	-0.877131
-17.0099	-1.74005
-18.0008	0.0105286
-17.0031	0.0056452
-16.0134	0.0115922
-16.9896	1.71808
-16.5055	0.866445
-16.0134	0.0115922
-16.9896	1.71808
-15.9907	1.74146
-15.0104	1.73929
-15.9853	3.47363
-15.514	2.60768
-15.0104	1.73929
-15.9853	3.47363
-14.9909	3.45067
-14.0005	3.47434
-14.9871	5.19436
-14.4894	4.31698
-14.0005	3.47434
-14.9871	5.19436
-14.0025	5.1813
-13.012	5.19431
-14.0065	6.91533
-13.5043	7.7817
-12.9985	8.66075
-14.0065	6.91533
-13.5141	6.05035
-13.012	5.19431
-12.9985	8.66075
-12.5084	9.53766
-12.0076	10.3971
-12.9985	8.66075
-12.0098	8.6656
-11.0048	8.6522
-12.0076	10.3971
-11.5051	11.2696
-11.0082	12.1255
-12.0076	10.3971
-11.497	9.53841
-11.0048	8.6522
-12.0076	10.3971
-11.0131	10.3878
-9.99312	10.386
-11.0082	12.1255
-10.5109	13.0027
-9.98775	13.8494
-9.98775	13.8494
-9.48848	14.7255
-9.0047	15.5983
-9.98775	13.8494
-9.5125	12.9791
-8.9961	12.1285
-9.98775	13.8494
-9.00333	13.8693
-8.01424	13.8561
-9.0047	15.5983
-8.49494	16.4546
-8.00409	17.3163
-9.0047	15.5983
-8.00778	15.5743
-7.00507	15.5894
-8.00409	17.3163
-7.50689	18.1761
-7.00291	19.0448
-8.00409	17.3163
-7.00676	17.3085
-6.00831	17.3217
-7.00291	19.0448
-6.50653	18.1963
-6.00831	17.3217
-6.01419	20.7939
-5.48728	21.6386
-5.008	22.5203
-6.01419	20.7939
-5.49146	19.9294
-5.01364	19.0423
-6.01419	20.7939
-5.00873	20.7987
-4.00492	20.7787
-3.98786	24.2602
-3.5073	25.1028
-3.00794	25.9663
-3.00794	25.9663
-2.51485	26.8589
-1.99708	27.7103
-3.00794	25.9663
-2.49469	25.1025
-2.00579	24.2578
-1.99708	27.7103
-1.50831	28.5717
-1.00807	29.4325
-1.00807	29.4325
0.00481944	29.4334
0.999617	29.4521
-24.993	-15.577
-24.5072	-16.4553
-24.006	-17.3142
-24.993	-15.577
-24.0063	-15.5852
-22.997	-15.5889
-23.9985	-13.8481
-23.4965	-14.7214
-22.997	-15.5889
-22.9911	-12.113
-22.4985	-11.2702
-21.9985	-10.3975
-22.9911	-12.113
-22.5043	-12.9975
-22	-13.8564
-22.9911	-12.113
-21.9988	-12.1109
-20.996	-12.1335
-21.9985	-10.3975
-21.5009	-11.2677
-20.996	-12.1335
-20.99	-8.65506
-19.9964	-8.65395
-18.9909	-8.66643
-20.0001	-6.92915
-19.5128	-6.06323
-19.0052	-5.18192
-20.0001	-6.92915
-19.4943	-7.79833
-18.9909	-8.66643
-20.0001	-6.92915
-19.0041	-6.92751
-17.9896	-6.93476
-18.0025	-3.4606
-17.487	-2.59535
-17.0099	-1.74005
-18.0025	-3.4606
-16.988	-3.458
-16.0045	-3.47763
-17.0099	-1.74005
-16.49	-2.58657
-16.0045	-3.47763
-17.0099	-1.74005
-15.9923	-1.7434
-14.9961	-1.72455
-16.0134	0.0115922
-15.4964	0.868289
-15.0104	1.73929
-15.0104	1.73929
-14.5037	0.851826
-14.0031	-0.000286925
-15.0104	1.73929
-14.0097	1.7237
-13.0021	1.72216
-14.0005	3.47434
-13.4886	4.32178
-13.012	5.19431
-14.0005	3.47434
-13.4853	2.61172
-13.0021	1.72216
-14.0005	3.47434
-12.9943	3.45861
-11.9999	3.45536
-13.012	5.19431
-12.4965	6.07085
-11.9992	6.93931
-13.012	5.19431
-11.9985	5.19196
-10.9882	5.21044
-11.9992	6.93931
-11.5115	7.80101
-11.0048	8.6522
-11.9992	6.93931
-11.5055	6.05575
-10.9882	5.21044
-11.0048	8.6522
-10.5135	7.79017
-10.0139	6.94153
-11.0048	8.6522
-10.0134	8.66709
-9.00057	8.65147
-9.99312	10.386
-8.99453	10.3942
-8.00165	10.3937
-8.9961	12.1285
-8.51357	12.9864
-8.01424	13.8561
-8.01424	13.8561
-7.50273	14.7322
-7.00507	15.5894
-8.01424	13.8561
-7.514	12.9799
-6.99454	12.1313
-7.00507	15.5894
-6.49218	16.4586
-6.00831	17.3217
-7.00507	15.5894
-6.50504	14.7108
-6.00031	13.8479
-6.00831	17.3217
-5.49829	16.4668
-5.00932	15.5899
-6.00831	17.3217
-5.00274	17.3109
-3.9997	17.3149
-4.00492	20.7787
-3.50508	21.6649
-2.99613	22.5265
-2.99613	22.5265
-2.51129	23.3688
-2.00579	24.2578
-2.99613	22.5265
-1.98919	22.5041
-0.987992	22.5183
-2.00579	24.2578
-1.51007	25.1285
-1.00939	25.9901
-2.00579	24.2578
-0.991206	24.2635
-0.0117879	24.2589
-1.00939	25.9901
-0.50268	26.8463
-0.0105051	27.7046
-1.00939	25.9901
-0.509985	25.1219
-0.0117879	24.2589
-0.0105051	27.7046
0.504366	28.5658
0.999617	29.4521
-0.0105051	27.7046
1.00686	27.7141
1.99603	27.7237
-24.006	-17.3142
-23.5014	-18.1932
-23.0056	-19.062
-24.006	-17.3142
-23.0091	-17.3205
-22.0123	-17.3294
-22.997	-15.5889
-22.4966	-14.7147
-22	-13.8564
-22.997	-15.5889
-22.5023	-16.4651
-22.0123	-17.3294
-22.997	-15.5889
-21.9964	-15.6009
-21.0134	-15.5973
-22	-13.8564
-21.5114	-14.7188
-21.0134	-15.5973
-20.003	-10.3955
-19.5137	-11.271
-19.0064	-12.11
-18.9909	-8.66643
-18.5002	-7.79921
-17.9896	-6.93476
-18.9909	-8.66643
-18.5094	-9.52194
-18.0065	-10.3831
-17.9896	-6.93476
-17.4901	-6.0692
-17.01	-5.19017
-17.9896	-6.93476
-17.0022	-6.92388
-15.9864	-6.92294
-17.01	-5.19017
-16.4877	-4.33838
-16.0045	-3.47763
-17.01	-5.19017
-16.5048	-6.06595
-15.9864	-6.92294
-14.9961	-1.72455
-14.0014	-1.74211
-13.0103	-1.72151
-14.0031	-0.000286925
-13.4933	0.878659
-13.0021	1.72216
-14.0031	-0.000286925
-13.0136	0.0118157
-12.0035	0.00420071
-13.0021	1.72216
-12.4895	0.85861
-12.0035	0.00420071
-13.0021	1.72216
-11.9946	1.71857
-11.0065	1.74138
-11.9999	3.45536
-11.509	2.60784
-11.0065	1.74138
-10.9882	5.21044
-9.99878	5.18122
-9.00929	5.21035
-10.0139	6.94153
-9.49116	7.8083
-9.00057	8.65147
-10.0139	6.94153
-9.51415	6.05741
-9.00929	5.21035
-10.0139	6.94153
-9.00723	6.91672
-8.01071	6.91347
-9.00057	8.65147
-7.98937	8.64869
-6.98949	8.65122
-8.00165	10.3937
-7.50012	11.2668
-6.99454	12.1313
-8.00165	10.3937
-7.49545	9.52204
-6.98949	8.65122
-8.00165	10.3937
-6.99259	10.3997
-6.01274	10.3942
-6.99454	12.1313
-6.49542	13.004
-6.00031	13.8479
-6.99454	12.1313
-6.49065	11.2704
-6.01274	10.3942
-6.99454	12.1313
-6.00851	12.1318
-5.00478	12.1368
-6.00031	13.8479
-5.48559	12.987
-5.00478	12.1368
-5.00932	15.5899
-4.50915	16.4602
-3.9997	17.3149
-5.00932	15.5899
-3.98608	15.5805
-3.0015	15.6008
-3.9997	17.3149
-3.512	16.44
-3.0015	15.6008
-2.98974	19.0399
-2.49434	18.1838
-1.98836	17.3118
-1.98939	20.7964
-1.50311	21.664
-0.987992	22.5183
-0.987992	22.5183
-0.4929	23.3856
-0.0117879	24.2589
-0.987992	22.5183
-0.0131532	22.5115
1.00901	22.517
-0.0117879	24.2589
0.487207	25.1002
1	25.9808
-0.0117879	24.2589
0.485913	23.3745
1.00901	22.517
1.99603	27.7237
2.51014	26.8334
2.99519	25.9759
3.00356	29.4302
3.48664	28.5655
4.00282	27.7116
3.00356	29.4302
4.00305	29.4322
4.99164	29.4591
-23.0056	-19.062
-22.5117	-18.1898
-22.0123	-17.3294
-23.0056	-19.062
-21.9919	-19.0533
-20.9938	-19.0564
-22.0123	-17.3294
-21.4958	-16.442
-21.0134	-15.5973
-22.0123	-17.3294
-21.0047	-17.3067
-19.9948	-17.3283
-21.0134	-15.5973
-20.504	-14.7093
-19.9927	-13.8673
-21.0134	-15.5973
-20.4948	-16.4577
-19.9948	-17.3283
-21.0134	-15.5973
-20.0112	-15.5824
-18.9924	-15.5787
-19.0064	-12.11
-18.4944	-11.2451
-18.0065	-10.3831
-19.0064	-12.11
-18.01	-12.1165
-16.9906	-12.1253
-18.0065	-10.3831
-17.4945	-9.52471
-16.9872	-8.6661
-18.0065	-10.3831
-17.5053	-11.2562
-16.9906	-12.1253
-18.0065	-10.3831
-17.0148	-10.3959
-15.9884	-10.3855
-16.9872	-8.6661
-16.4899	-7.80054
-15.9864	-6.92294
-16.9872	-8.6661
-16.4929	-9.51342
-15.9884	-10.3855
-16.9872	-8.6661
-15.9986	-8.65215
-14.9962	-8.65818
-15.9864	-6.92294
-15.4865	-6.07313
-14.9905	-5.19778
-14.9905	-5.19778
-14.505	-6.05517
-13.9923	-6.93661
-14.9905	-5.19778
-13.9933	-5.20648
-12.9906	-5.20741
-14.0109	-3.47623
-13.4949	-4.31833
-12.9906	-5.20741
-14.0109	-3.47623
-12.9951	-3.45976
-11.9935	-3.4741
-13.0103	-1.72151
-12.4864	-0.864101
-12.0035	0.00420071
-13.0103	-1.72151
-12.5114	-2.59823
-11.9935	-3.4741
-13.0103	-1.72151
-11.9875	-1.71937
-10.992	-1.72463
-12.0035	0.00420071
-11.5112	0.861811
-11.0065	1.74138
-11.0065	1.74138
-10.4862	0.880891
-10.0083	0.00552304
-9.99883	3.47551
-9.51304	4.32654
-9.00929	5.21035
-9.00929	5.21035
-8.49671	4.34186
-8.00003	3.45508
-9.00929	5.21035
-8.0064	5.19675
-6.9885	5.19937
-8.01071	6.91347
-7.48908	6.05265
-6.9885	5.19937
-6.98949	8.65122
-6.51078	9.53432
-6.01274	10.3942
-6.98949	8.65122
-6.50545	7.7939
-5.98885	6.91437
-6.98949	8.65122
-5.99246	8.67309
-5.00383	8.64826
-6.01274	10.3942
-5.48559	9.51354
-5.00383	8.64826
-6.01274	10.3942
-4.99074	10.3978
-3.9963	10.3874
-5.00478	12.1368
-4.51455	12.9946
-4.01018	13.8517
-5.00478	12.1368
-4.00498	12.1101
-3.00784	12.1353
-4.01018	13.8517
-3.5009	12.9764
-3.00784	12.1353
-3.0015	15.6008
-1.99017	15.5785
-0.999792	15.5779
-1.98836	17.3118
-1.49383	16.4604
-0.999792	15.5779
-1.98836	17.3118
-1.00731	17.3074
0.00308117	17.3293
-1.0135	19.0467
-0.498839	19.9043
-0.00465211	20.798
-1.0135	19.0467
-0.00793497	19.0487
1.01273	19.0668
-0.00465211	20.798
0.489041	21.6392
1.00901	22.517
-0.00465211	20.798
0.493468	19.9132
1.01273	19.0668
1.00901	22.517
1.50267	23.3679
1.99633	24.2631
1.00901	22.517
2.0094	22.5053
2.9925	22.5297
1.99633	24.2631
2.49058	25.1038
2.99519	25.9759
1.99633	24.2631
2.50349	23.3695
2.9925	22.5297
1.99633	24.2631
3.00907	24.2439
4.00085	24.255
2.99519	25.9759
3.49892	25.11
4.00085	24.255
2.99519	25.9759
3.98641	25.9822
5.00592	25.9774
4.00282	27.7116
4.48566	28.5874
4.99164	29.4591
4.00282	27.7116
4.48663	26.8495
5.00592	25.9774
4.00282	27.7116
5.00754	27.712
5.9917	27.7235
4.99164	29.4591
5.508	28.585
5.9917	27.7235
-20.9938	-19.0564
-20.5012	-19.9056
-19.9907	-20.7707
-18.9924	-15.5787
-18.5046	-14.7194
-18.0046	-13.869
-18.9924	-15.5787
-18.5011	-16.4533
-18.0037	-17.3142
-18.9924	-15.5787
-17.9876	-15.5947
-17.004	-15.5983
-18.0046	-13.869
-16.9923	-13.8683
-16.0011	-13.8487
-16.9906	-12.1253
-16.5039	-11.2452
-15.9884	-10.3855
-15.9884	-10.3855
-15.4853	-9.53557
-14.9962	-8.65818
-15.9884	-10.3855
-15.4889	-11.2701
-15.0088	-12.1298
-15.9884	-10.3855
-14.9862	-10.3923
-14.0081	-10.399
-14.9962	-8.65818
-14.5073	-9.53176
-14.0081	-10.399
-14.9962	-8.65818
-13.9857	-8.66176
-12.994	-8.64619
-13.9923	-6.93661
-13.4926	-7.78813
-12.994	-8.64619
-13.9923	-6.93661
-13.0009	-6.93867
-11.9944	-6.93219
-12.9906	-5.20741
-12.5043	-4.33898
-11.9935	-3.4741
-12.9906	-5.20741
-11.9953	-5.1975
-10.9935	-5.19776
-11.9935	-3.4741
-11.5083	-2.60451
-10.992	-1.72463
-11.9935	-3.4741
-11.5076	-4.31546
-10.9935	-5.19776
-11.9935	-3.4741
-11.0083	-3.47788
-10.0131	-3.46788
-10.992	-1.72463
-10.5052	-2.59337
-10.0131	-3.46788
-10.0083	0.00552304
-9.50235	0.855633
-9.00631	1.72176
-10.0083	0.00552304
-9.51299	-0.854695
-9.00262	-1.72725
-9.00631	1.72176
-8.51097	0.853171
-8.01047	-0.0123521
-8.00003	3.45508
-7.50764	4.34138
-6.9885	5.19937
-6.9885	5.19937
-6.51469	4.33544
-5.98826	3.45472
-6.9885	5.19937
-5.99254	5.19348
-5.00033	5.20348
-5.98885	6.91437
-5.49383	7.79381
-5.00383	8.64826
-5.98885	6.91437
-5.51069	6.06349
-5.00033	5.20348
-5.00383	8.64826
-4.50156	9.53187
-3.9963	10.3874
-5.00383	8.64826
-4.50058	7.80586
-3.98574	6.94273
-3.9963	10.3874
-3.50562	11.2602
-3.00784	12.1353
-3.9963	10.3874
-3.51134	9.53064
-2.9982	8.66535
-3.9963	10.3874
-2.9958	10.4007
-2.0071	10.4073
-3.00784	12.1353
-2.49042	12.9907
-1.99191	13.8639
-3.00784	12.1353
-1.99716	12.1106
-0.993039	12.1335
-1.99191	13.8639
-1.4905	12.9962
-0.993039	12.1335
-0.999792	15.5779
-0.501697	14.7243
-0.0128811	13.8498
-0.999792	15.5779
-0.00205754	15.5963
0.994906	15.5985
0.00308117	17.3293
0.509867	18.1842
1.01273	19.0668
0.00308117	17.3293
0.49941	16.4651
0.994906	15.5985
0.00308117	17.3293
0.996829	17.3242
1.99029	17.3281
1.01273	19.0668
1.50939	18.1989
1.99029	17.3281
1.01273	19.0668
2.00799	19.0596
2.99296	19.0583
1.99562	20.7935
2.50968	21.6484
2.9925	22.5297
1.99562	20.7935
2.50693	19.9045
2.99296	19.0583
1.99562	20.7935
3.00963	20.7946
4.00704	20.7778
2.9925	22.5297
3.49025	23.3779
4.00085	24.255
2.9925	22.5297
3.49146	21.6372
4.00704	20.7778
4.00085	24.255
4.50336	25.124
5.00592	25.9774
4.00085	24.255
4.48896	23.3749
5.00245	22.522
4.00085	24.255
4.99523	24.2515
6.01115	24.2605
5.00592	25.9774
5.49976	26.8389
5.9917	27.7235
5.00592	25.9774
5.4899	25.1121
6.01115	24.2605
-19.9907	-20.7707
-19.0022	-20.792
-17.9932	-20.7817
-19.0077	-19.04
-18.4853	-18.1998
-18.0037	-17.3142
-19.0077	-19.04
-18.007	-19.0414
-17.0125	-19.0396
-17.004	-15.5983
-16.5145	-14.7082
-16.0011	-13.8487
-17.004	-15.5983
-15.9896	-15.6028
-14.989	-15.5874
-15.0088	-12.1298
-14.5011	-12.9947
-13.9876	-13.8595
-15.0088	-12.1298
-13.9881	-12.1253
-13.0006	-12.1264
-12.994	-8.64619
-12.4985	-7.80885
-11.9944	-6.93219
-12.994	-8.64619
-12.5142	-9.51465
-12.0015	-10.3982
-12.994	-8.64619
-12.0036	-8.64747
-11.0138	-8.6587
-11.9944	-6.93219
-11.5025	-6.07685
-10.9935	-5.19776
-10.9935	-5.19776
-10.501	-4.32495
-10.0131	-3.46788
-10.9935	-5.19776
-9.994	-5.19396
-8.98956	-5.1835
-10.0131	-3.46788
-9.48952	-2.58973
-9.00262	-1.72725
-10.0131	-3.46788
-9.49763	-4.32814
-8.98956	-5.1835
-10.0131	-3.46788
-8.99966	-3.45746
-8.0068	-3.47784
-8.01047	-0.0123521
-7.49836	-0.857145
-7.00197	-1.72679
-8.01047	-0.0123521
-7.0114	-0.00225046
-5.99723	0.00948681
-5.98826	3.45472
-5.5146	4.33988
-5.00033	5.20348
-5.98826	3.45472
-5.50285	2.58815
-5.01243	1.72053
-5.00033	5.20348
-4.50934	6.0658
-3.98574	6.94273
-5.00033	5.20348
-4.49004	4.33704
-3.98945	3.47747
-3.98574	6.94273
-3.49554	7.78442
-2.9982	8.66535
-3.98574	6.94273
-2.99034	6.92719
-2.00674	6.92375
-2.9982	8.66535
-2.48782	9.51423
-2.0071	10.4073
-2.9982	8.66535
-2.48663	7.78137
-2.00674	6.92375
-2.9982	8.66535
-1.99088	8.65746
-1.00896	8.65853
-2.0071	10.4073
-1.00952	10.3972
-0.0123516	10.3958
-0.993039	12.1335
-0.485785	11.2531
-0.0123516	10.3958
-0.993039	12.1335
-0.0140452	12.1235
0.993295	12.1178
-0.0128811	13.8498
0.500137	14.7256
0.994906	15.5985
-0.0128811	13.8498
0.501395	12.9891
0.993295	12.1178
-0.0128811	13.8498
1.00279	13.8619
2.01172	13.8493
0.994906	15.5985
1.49969	16.4635
1.99029	17.3281
0.994906	15.5985
1.48698	14.7365
2.01172	13.8493
0.994906	15.5985
1.99226	15.5778
2.98682	15.5762
1.99029	17.3281
2.50037	16.4402
2.98682	15.5762
1.99029	17.3281
3.00483	17.3088
4.0012	17.3304
2.99296	19.0583
3.50095	19.9043
4.00704	20.7778
2.99296	19.0583
3.48944	18.2008
4.0012	17.3304
2.99296	19.0583
3.99514	19.056
4.98687	19.0378
4.00704	20.7778
4.50805	19.9301
4.98687	19.0378
5.00245	22.522
5.49811	23.3891
6.01115	24.2605
5.00245	22.522
5.48586	21.6485
6.00371	20.77
6.01115	24.2605
6.49133	23.3751
7.01444	22.5154
6.01115	24.2605
7.00909	24.2607
8.00441	24.2504
7.00396	25.9902
7.99744	25.9838
9.00199	25.9778
-18.9851	-22.5057
-17.9873	-22.516
-17.0068	-22.5213
-17.9932	-20.7817
-17.5009	-21.6401
-17.0068	-22.5213
-17.9932	-20.7817
-17.0023	-20.7862
-15.9946	-20.796
-17.0125	-19.0396
-16.5097	-18.1784
-15.9998	-17.3116
-17.0125	-19.0396
-16.5104	-19.9266
-15.9946	-20.796
-17.0125	-19.0396
-15.9881	-19.0525
-14.9853	-19.0474
-15.9998	-17.3116
-15.5114	-16.4593
-14.989	-15.5874
-15.9998	-17.3116
-15.4994	-18.1993
-14.9853	-19.0474
-15.9998	-17.3116
-15.0057	-17.3337
-14.0031	-17.3087
-14.989	-15.5874
-14.4879	-14.7075
-13.9876	-13.8595
-14.989	-15.5874
-14.4877	-16.4424
-14.0031	-17.3087
-14.989	-15.5874
-14.0136	-15.5854
-12.9978	-15.5794
-13.9876	-13.8595
-13.5099	-12.9801
-13.0006	-12.1264
-13.9876	-13.8595
-13.507	-14.7213
-12.9978	-15.5794
-13.9876	-13.8595
-13.0018	-13.8571
-11.9955	-13.8442
-13.0006	-12.1264
-12.5081	-11.2517
-12.0015	-10.3982
-12.0015	-10.3982
-11.4974	-9.5285
-11.0138	-8.6587
-12.0015	-10.3982
-10.9998	-10.382
-10.0022	-10.3933
-11.0138	-8.6587
-10.5034	-7.8067
-10.0085	-6.92701
-10.0085	-6.92701
-9.50002	-6.05221
-8.98956	-5.1835
-10.0085	-6.92701
-9.49422	-7.7974
-8.99718	-8.65303
-10.0085	-6.92701
-8.99118	-6.92297
-7.98821	-6.92354
-8.98956	-5.1835
-7.99781	-5.20925
-7.00369	-5.20308
-8.0068	-3.47784
-7.49058	-2.58576
-7.00197	-1.72679
-8.0068	-3.47784
-7.51317	-4.32368
-7.00369	-5.20308
-7.00197	-1.72679
-6.5029	-0.86067
-5.99723	0.00948681
-7.00197	-1.72679
-6.49628	-2.5934
-5.99226	-3.46707
-5.99723	0.00948681
-5.50451	0.874827
-5.01243	1.72053
-5.99723	0.00948681
-5.01448	-0.000216841
-4.00747	-0.00433273
-5.01243	1.72053
-3.99853	1.72995
-3.0033	1.73211
-3.00264	5.20752
-2.49899	4.331
-1.99023	3.44971
-3.00264	5.20752
-2.01439	5.20205
-1.00116	5.2049
-2.00674	6.92375
-1.48756	6.05008
-1.00116	5.2049
-1.00896	8.65853
-0.50268	9.52538
-0.0123516	10.3958
-1.00896	8.65853
-0.00728615	8.65564
1.00589	8.66987
-0.0123516	10.3958
0.494468	11.2512
0.993295	12.1178
0.993295	12.1178
1.49438	12.9924
2.01172	13.8493
2.01172	13.8493
2.48863	14.7344
2.98682	15.5762
2.01172	13.8493
2.4883	12.9948
3.00411	12.1253
2.01172	13.8493
3.01104	13.8485
4.00226	13.8536
2.98682	15.5762
3.49297	16.4567
4.0012	17.3304
2.98682	15.5762
4.01123	15.5954
4.98711	15.5947
4.0012	17.3304
5.01268	17.3056
5.99828	17.3273
4.98687	19.0378
5.5098	18.1828
5.99828	17.3273
4.98687	19.0378
5.99648	19.0602
6.99572	19.0409
6.00371	20.77
6.49416	19.9057
6.99572	19.0409
7.01444	22.5154
7.49337	23.3681
8.00441	24.2504
7.01444	22.5154
7.48808	21.6371
7.98546	20.7862
7.01444	22.5154
8.01262	22.5073
8.98737	22.5143
8.00441	24.2504
8.51237	23.3956
8.98737	22.5143
8.00441	24.2504
9.00397	24.2495
9.98727	24.2489
9.00199	25.9778
9.50903	25.1146
9.98727	24.2489
9.00199	25.9778
9.99671	25.9834
11.0131	25.9726
9.9953	27.7148
10.4913	26.8405
11.0131	25.9726
-17.0068	-22.5213
-16.4889	-23.3721
-15.9966	-24.2575
-15.9946	-20.796
-15.0021	-20.7845
-14.007	-20.7752
-14.9853	-19.0474
-14.5147	-18.2005
-14.0031	-17.3087
-14.0031	-17.3087
-13.4916	-16.4415
-12.9978	-15.5794
-14.0031	-17.3087
-13.0093	-17.3127
-12.008	-17.3122
-12.9978	-15.5794
-12.5089	-16.4514
-12.008	-17.3122
-12.9978	-15.5794
-11.9984	-15.5969
-10.9879	-15.579
-11.9955	-13.8442
-11.4987	-13.0001
-11.0031	-12.1212
-11.9955	-13.8442
-11.0011	-13.8606
-9.9978	-13.8418
-11.0031	-12.1212
-10.498	-11.2576
-10.0022	-10.3933
-11.0031	-12.1212
-10.5126	-12.9835
-9.9978	-13.8418
-11.0031	-12.1212
-9.99635	-12.1297
-8.99218	-12.1226
-8.99718	-8.65303
-8.49481	-7.77967
-7.98821	-6.92354
-7.98821	-6.92354
-7.50366	-6.05471
-7.00369	-5.20308
-7.00369	-5.20308
-6.01165	-5.21051
-5.00917	-5.20637
-5.00625	-1.72262
-4.5035	-2.61161
-3.98535	-3.47873
-4.00747	-0.00433273
-3.50853	0.880671
-3.0033	1.73211
-4.00747	-0.00433273
-3.01101	-0.0148566
-2.00917	0.00526325
-3.0033	1.73211
-2.50555	0.868727
-2.00917	0.00526325
-3.0033	1.73211
-2.01228	1.74644
-0.989337	1.72365
-1.99023	3.44971
-1.49262	4.32833
-1.00116	5.2049
-1.99023	3.44971
-0.999653	3.4632
0.00494441	3.47022
-1.00116	5.2049
-0.50412	6.06229
-0.00731855	6.92869
-1.00116	5.2049
0.00417135	5.20561
0.985944	5.19994
-0.00731855	6.92869
0.988427	6.93891
2.00832	6.92528
1.00589	8.66987
1.4852	7.79038
2.00832	6.92528
2.00393	10.4062
2.50645	11.2518
3.00411	12.1253
2.00393	10.4062
2.48644	9.52407
3.01107	8.6514
2.00393	10.4062
3.00294	10.4018
4.01369	10.3967
3.00411	12.1253
3.50009	12.9789
4.00226	13.8536
3.00411	12.1253
3.98521	12.1263
5.00245	12.1155
4.00226	13.8536
4.49224	12.9868
5.00245	12.1155
4.98711	15.5947
5.50905	16.4574
5.99828	17.3273
4.98711	15.5947
5.51453	14.7208
5.99583	13.8649
4.98711	15.5947
5.98594	15.5748
7.01138	15.5982
5.99828	17.3273
6.48999	18.1913
6.99572	19.0409
5.99828	17.3273
6.50247	16.4529
7.01138	15.5982
5.99828	17.3273
7.00403	17.3075
8.00041	17.3182
6.99572	19.0409
7.48924	18.1787
8.00041	17.3182
7.98546	20.7862
8.51097	19.9047
8.99726	19.067
8.98737	22.5143
9.51278	23.3939
9.98727	24.2489
8.98737	22.5143
9.50058	21.6414
9.99957	20.7837
8.98737	22.5143
10.0037	22.5105
11.0011	22.529
9.98727	24.2489
10.4939	25.1164
11.0131	25.9726
9.98727	24.2489
10.4998	23.3812
11.0011	22.529
9.98727	24.2489
10.9937	24.2572
11.9955	24.2593
11.0131	25.9726
11.4945	25.1158
11.9955	24.2593
-15.9966	-24.2575
-15.5135	-23.372
-14.9894	-22.5201
-15.9966	-24.2575
-15.0011	-24.234
-14.0066	-24.2619
-14.9894	-22.5201
-14.503	-21.6375
-14.007	-20.7752
-14.9894	-22.5201
-14.5011	-23.3788
-14.0066	-24.2619
-14.9894	-22.5201
-13.989	-22.5216
-12.986	-22.5288
-14.007	-20.7752
-13.514	-19.9219
-13.0048	-19.0503
-14.007	-20.7752
-13.4939	-21.6545
-12.986	-22.5288
-13.0048	-19.0503
-12.5097	-19.9168
-12	-20.7846
-12.008	-17.3122
-11.4997	-16.4396
-10.9879	-15.579
-12.008	-17.3122
-10.9877	-17.3328
-9.9857	-17.3194
-10.9879	-15.579
-10.5032	-16.4483
-9.9857	-17.3194
-9.9978	-13.8418
-9.48776	-14.7268
-9.00348	-15.6008
-8.99218	-12.1226
-8.48767	-13.0041
-7.98969	-13.8647
-8.99218	-12.1226
-8.00121	-12.1335
-6.99679	-12.1308
-7.99585	-10.3902
-7.5081	-9.53824
-6.99977	-8.65496
-7.99585	-10.3902
-7.48952	-11.2565
-6.99679	-12.1308
-7.99585	-10.3902
-7.00902	-10.3899
-5.99214	-10.3882
-3.98535	-3.47873
-3.49386	-4.31736
-2.99099	-5.19959
-3.98535	-3.47873
-2.99598	-3.45433
-2.00649	-3.47816
-2.98729	-1.7229
-2.49396	-0.853464
-2.00917	0.00526325
-2.00917	0.00526325
-1.5027	0.85993
-0.989337	1.72365
0.00494441	3.47022
0.51163	4.34362
0.985944	5.19994
0.00494441	3.47022
0.490238	2.6018
1.00165	1.72883
0.00494441	3.47022
1.00066	3.47617
2.00906	3.4745
0.985944	5.19994
2.00404	5.2071
2.99802	5.19081
2.00832	6.92528
2.48852	6.06269
2.99802	5.19081
2.00832	6.92528
3.00271	6.9177
4.00025	6.91927
3.01107	8.6514
3.49652	9.53735
4.01369	10.3967
3.01107	8.6514
3.98999	8.65039
4.99091	8.65335
4.01369	10.3967
4.48928	11.247
5.00245	12.1155
4.01369	10.3967
4.49324	9.53182
4.99091	8.65335
5.00245	12.1155
5.50235	12.9771
5.99583	13.8649
5.00245	12.1155
5.99018	12.1179
6.99418	12.1309
5.99583	13.8649
6.48699	12.9837
6.99418	12.1309
5.99583	13.8649
7.01257	13.8449
8.01443	13.8665
7.01138	15.5982
7.49172	16.4568
8.00041	17.3182
7.01138	15.5982
7.49051	14.7196
8.01443	13.8665
7.01138	15.5982
8.0008	15.5779
9.00448	15.5971
8.00041	17.3182
8.4915	16.4692
9.00448	15.5971
8.00041	17.3182
9.00263	17.3344
10.0045	17.3155
8.99726	19.067
9.51304	19.9041
9.99957	20.7837
8.99726	19.067
10.0068	19.04
10.9918	19.0625
9.99957	20.7837
10.4954	21.6382
11.0011	22.529
9.99957	20.7837
10.4966	19.9059
10.9918	19.0625
11.0011	22.529
11.492	23.3976
11.9955	24.2593
11.0011	22.529
11.9982	22.5074
12.9983	22.5103
11.9955	24.2593
12.4938	23.378
12.9983	22.5103
11.9955	24.2593
13.0011	24.2555
13.988	24.2605
12.9973	25.9707
13.5046	25.1047
13.988	24.2605
-15	-25.9808
-14.5076	-25.1155
-14.0066	-24.2619
-15	-25.9808
-14.0033	-25.9844
-13.0077	-25.9915
-14.0066	-24.2619
-13.0115	-24.2536
-11.9932	-24.2391
-12.986	-22.5288
-12.5112	-21.6478
-12	-20.7846
-12.986	-22.5288
-12.5148	-23.3835
-11.9932	-24.2391
-12	-20.7846
-11.5117	-19.9333
-10.9859	-19.064
-12	-20.7846
-11.5081	-21.656
-10.9931	-22.5177
-12	-20.7846
-10.9966	-20.7787
-10.0123	-20.7844
-10.9859	-19.064
-10.4873	-18.1931
-9.9857	-17.3194
-10.9859	-19.064
-10.5028	-19.9079
-10.0123	-20.7844
-9.9857	-17.3194
-9.50529	-16.4505
-9.00348	-15.6008
-9.9857	-17.3194
-9.49098	-18.1967
-8.9928	-19.0457
-9.9857	-17.3194
-9.00324	-17.3173
-7.99778	-17.3323
-9.00348	-15.6008
-8.49176	-14.7336
-7.98969	-13.8647
-9.00348	-15.6008
-8.5023	-16.4514
-7.99778	-17.3323
-9.00348	-15.6008
-7.99903	-15.5753
-7.00813	-15.5792
-7.98969	-13.8647
-7.50947	-12.994
-6.99679	-12.1308
-7.98969	-13.8647
-7.50159	-14.7282
-7.00813	-15.5792
-7.98969	-13.8647
-6.99997	-13.8685
-5.99853	-13.8507
-6.99679	-12.1308
-6.51431	-11.2671
-5.99214	-10.3882
-6.99679	-12.1308
-6.50032	-13.0006
-5.99853	-13.8507
-6.99679	-12.1308
-6.01145	-12.1173
-5.00777	-12.1389
-5.99214	-10.3882
-5.49378	-9.52785
-5.00212	-8.65912
-5.99214	-10.3882
-5.00985	-10.392
-4.00508	-10.4033
-5.00212	-8.65912
-4.00978	-8.66435
-3.01294	-8.65545
-3.99471	-6.93026
-3.50707	-6.06126
-2.99099	-5.19959
-3.99471	-6.93026
-3.49981	-7.78597
-3.01294	-8.65545
-3.99471	-6.93026
-3.00964	-6.93979
-2.0136	-6.93711
-2.99099	-5.19959
-2.50291	-4.32149
-2.00649	-3.47816
-2.99099	-5.19959
-2.4876	-6.06754
-2.0136	-6.93711
-2.99099	-5.19959
-1.99643	-5.20364
-0.999392	-5.20139
-2.00649	-3.47816
-1.4959	-2.60562
-0.999392	-1.71781
-2.00649	-3.47816
-1.49517	-4.31557
-0.999392	-5.20139
-2.00649	-3.47816
-1.00865	-3.45009
-0.0098253	-3.45555
-0.999392	-1.71781
-0.00839604	-1.72121
1.01211	-1.72575
0.00878398	-0.0103351
0.491277	-0.860982
1.01211	-1.72575
0.00878398	-0.0103351
0.990452	-0.00127461
1.98557	0.0070525
1.00165	1.72883
1.99039	1.74694
3.00373	1.73313
2.99802	5.19081
3.50549	4.33996
4.00987	3.47876
2.99802	5.19081
4.01007	5.18426
5.01418	5.19624
4.00025	6.91927
4.51122	7.8075
4.99091	8.65335
4.00025	6.91927
4.99286	6.92049
6.00856	6.93661
4.99091	8.65335
5.98631	8.6704
7.00214	8.65611
5.98661	10.3956
6.50113	9.51353
7.00214	8.65611
6.99418	12.1309
7.49237	11.2657
7.99121	10.4051
6.99418	12.1309
8.00341	12.1099
8.99897	12.1144
8.01443	13.8665
8.51343	14.7124
9.00448	15.5971
8.01443	13.8665
8.4941	12.99
8.99897	12.1144
8.01443	13.8665
8.99165	13.8556
9.99942	13.868
9.00448	15.5971
9.51122	16.4398
10.0045	17.3155
9.00448	15.5971
9.49022	14.727
9.99942	13.868
10.0045	17.3155
10.5117	16.4592
10.9913	15.5879
10.0045	17.3155
11.0095	17.3303
12.007	17.3092
10.9918	19.0625
11.5109	19.9126
12.0148	20.7935
10.9918	19.0625
11.9946	19.0578
12.9882	19.0401
12.0148	20.7935
12.5132	21.6555
12.9983	22.5103
12.0148	20.7935
12.4875	19.9259
12.9882	19.0401
12.0148	20.7935
13.0146	20.7774
14.0067	20.7762
13.988	24.2605
14.5066	25.1119
15.0121	25.9908
13.988	24.2605
15.0073	24.2596
15.9867	24.2587
-11.9932	-24.2391
-11.5097	-23.3817
-10.9931	-22.5177
-11.9932	-24.2391
-11.4899	-25.1292
-10.9968	-25.9698
-10.9931	-22.5177
-10.4925	-21.6579
-10.0123	-20.7844
-10.9931	-22.5177
-9.99332	-22.5158
-8.98806	-22.5235
-7.99778	-17.3323
-7.51411	-16.4683
-7.00813	-15.5792
-7.99778	-17.3323
-7.49311	-18.18
-7.00535	-19.054
-7.99778	-17.3323
-6.99931	-17.3251
-5.99735	-17.3291
-7.00813	-15.5792
-6.50743	-14.718
-5.99853	-13.8507
-7.00813	-15.5792
-6.48523	-16.4601
-5.99735	-17.3291
-7.00813	-15.5792
-6.00305	-15.5853
-5.01277	-15.5894
-5.00777	-12.1389
-4.50018	-11.2524
-4.00508	-10.4033
-4.00508	-10.4033
-3.49529	-9.52632
-3.01294	-8.65545
-4.00508	-10.4033
-3.49444	-11.2521
-3.00099	-12.1308
-3.01294	-8.65545
-2.01184	-8.67364
-1.00489	-8.6591
-2.0136	-6.93711
-1.48956	-6.05945
-0.999392	-5.20139
-2.0136	-6.93711
-1.49146	-7.79734
-1.00489	-8.6591
-2.0136	-6.93711
-1.00253	-6.92622
-0.000752284	-6.9246
-0.999392	-5.20139
-0.505127	-4.32014
-0.0098253	-3.45555
-0.0098253	-3.45555
0.500812	-4.34075
1.0143	-5.20122
1.01211	-1.72575
1.50063	-0.857332
1.98557	0.0070525
1.01211	-1.72575
1.50604	-2.58332
1.99515	-3.45599
1.01211	-1.72575
1.9971	-1.72663
3.01364	-1.74442
1.98557	0.0070525
2.50049	-0.879388
3.01364	-1.74442
1.98557	0.0070525
3.00321	0.00407266
3.98512	0.00149307
3.00373	1.73313
3.99423	1.72796
4.99613	1.73302
4.00987	3.47876
4.49266	4.32451
5.01418	5.19624
4.00987	3.47876
4.49896	2.59143
4.99613	1.73302
4.00987	3.47876
4.99169	3.44945
6.00095	3.46129
5.01418	5.19624
5.49029	4.31723
6.00095	3.46129
5.01418	5.19624
6.00738	5.19653
6.99106	5.20888
6.00856	6.93661
6.50948	6.05362
6.99106	5.20888
7.00214	8.65611
7.49134	9.51994
7.99121	10.4051
7.00214	8.65611
7.49312	7.79117
8.01089	6.94124
7.00214	8.65611
8.01122	8.66622
8.99455	8.66346
9.99942	13.868
10.4875	13.0013
11.0119	12.111
9.99942	13.868
10.9864	13.8689
11.9958	13.8486
10.9913	15.5879
11.5125	14.7088
11.9958	13.8486
10.9913	15.5879
11.9983	15.5874
12.9873	15.5905
12.007	17.3092
12.5103	18.1955
12.9882	19.0401
12.007	17.3092
12.5081	16.4649
12.9873	15.5905
12.9882	19.0401
14.0067	19.0638
14.9878	19.0421
14.0067	20.7762
14.9943	20.7812
16.0012	20.781
14.9944	22.5289
15.5125	21.6401
16.0012	20.781
-10.9968	-25.9698
-10.4904	-26.8599
-10.0104	-27.7128
-10.9968	-25.9698
-9.98555	-25.9856
-9.0022	-25.9837
-10.0062	-24.2366
-9.49999	-23.3688
-8.98806	-22.5235
-7.00535	-19.054
-6.48684	-18.1816
-5.99735	-17.3291
-7.00535	-19.054
-6.48721	-19.9165
-6.00679	-20.7784
-7.00535	-19.054
-5.99423	-19.0443
-4.98653	-19.0402
-5.99735	-17.3291
-4.98617	-17.3279
-3.98572	-17.3284
-5.01277	-15.5894
-4.49688	-14.7278
-4.00866	-13.854
-5.01277	-15.5894
-4.50549	-16.4437
-3.98572	-17.3284
-4.00866	-13.854
-3.49441	-13.0019
-3.00099	-12.1308
-4.00866	-13.854
-3.4911	-14.7334
-2.9998	-15.5968
-3.00099	-12.1308
-2.4951	-11.2547
-1.99681	-10.4046
-1.99681	-10.4046
-1.49868	-9.53408
-1.00489	-8.6591
-1.99681	-10.4046
-1.49604	-11.2609
-0.985662	-12.1318
-1.00489	-8.6591
-0.494169	-7.80851
-0.000752284	-6.9246
-1.00489	-8.6591
-0.00371253	-8.652
0.99164	-8.6552
-0.000752284	-6.9246
0.506552	-6.04781
1.0143	-5.20122
-0.000752284	-6.9246
0.487445	-7.79316
0.99164	-8.6552
1.0143	-5.20122
1.49412	-4.32905
1.99515	-3.45599
1.99515	-3.45599
2.99955	-3.46925
3.98789	-3.47086
3.01364	-1.74442
3.49478	-0.855455
3.98512	0.00149307
3.01364	-1.74442
3.49069	-2.61285
3.98789	-3.47086
3.01364	-1.74442
3.99863	-1.7239
5.00598	-1.73984
3.98512	0.00149307
4.49254	-0.870188
5.00598	-1.73984
3.98512	0.00149307
5.0074	0.00284336
5.99301	-0.00965359
4.99613	1.73302
5.50183	2.59994
6.00095	3.46129
4.99613	1.73302
5.49631	0.863511
5.99301	-0.00965359
4.99613	1.73302
6.00714	1.72489
6.99909	1.73123
6.00095	3.46129
6.51021	4.3258
6.99106	5.20888
6.00095	3.46129
6.99908	3.47236
8.01239	3.45162
8.01089	6.94124
8.50214	6.07715
8.99469	5.18613
8.01089	6.94124
8.99164	6.94282
10.001	6.92401
8.99455	8.66346
9.50787	7.78875
10.001	6.92401
8.99455	8.66346
9.98696	8.64966
11.0015	8.67346
10.0059	10.3793
11.0099	10.391
12.0128	10.3865
11.9958	13.8486
12.4917	14.7286
12.9873	15.5905
11.9958	13.8486
13.0129	13.8703
13.9891	13.8607
12.9873	15.5905
13.5036	16.4463
13.9931	17.3333
13.9931	17.3333
14.4883	16.4396
14.9965	15.5907
13.9931	17.3333
15.0095	17.3136
16.0124	17.332
14.9878	19.0421
15.5133	19.9147
16.0012	20.781
14.9878	19.0421
15.5125	18.1782
16.0124	17.332
16.0012	20.781
16.5013	21.6651
16.9888	22.5171
16.0012	20.781
16.5128	19.9092
17.0101	19.0609
16.9888	22.5171
17.4943	21.6386
18.0022	20.7923
16.9888	22.5171
18.0016	22.5173
18.9901	22.5283
-9.0022	-25.9837
-8.50896	-25.1157
-8.01052	-24.2565
-8.01052	-24.2565
-7.50345	-23.3745
-7.0116	-22.5195
-8.01052	-24.2565
-7.48624	-25.1142
-7.00644	-25.9793
-8.01052	-24.2565
-6.98778	-24.253
-6.00039	-24.24
-7.0116	-22.5195
-6.48959	-21.6403
-6.00679	-20.7784
-7.0116	-22.5195
-6.49518	-23.3794
-6.00039	-24.24
-6.00679	-20.7784
-5.51002	-21.6558
-5.0041	-22.5248
-4.98653	-19.0402
-4.50796	-19.9238
-3.9907	-20.7979
-4.98653	-19.0402
-3.98758	-19.059
-3.01032	-19.0616
-3.98572	-17.3284
-3.50622	-16.445
-2.9998	-15.5968
-3.98572	-17.3284
-3.49169	-18.19
-3.01032	-19.0616
-2.9998	-15.5968
-2.50997	-16.446
-2.0141	-17.3074
-2.9998	-15.5968
-1.99387	-15.6035
-1.01233	-15.5745
-2.01327	-13.8667
-0.988104	-13.8494
0.0088153	-13.8486
-0.985662	-12.1318
0.00985161	-12.1326
1.01001	-12.1158
0.0119624	-10.4001
0.997263	-10.3994
2.00439	-10.3857
0.99164	-8.6552
1.50402	-7.79491
2.00379	-6.91763
0.99164	-8.6552
1.49683	-9.53546
2.00439	-10.3857
0.99164	-8.6552
1.99482	-8.66123
3.00841	-8.67119
2.00379	-6.91763
2.48571	-6.0546
3.01464	-5.19083
2.00379	-6.91763
2.48774	-7.78516
3.00841	-8.67119
3.01464	-5.19083
3.49236	-4.31645
3.98789	-3.47086
3.01464	-5.19083
3.98779	-5.18591
5.002	-5.20731
3.98789	-3.47086
4.50739	-4.34257
5.002	-5.20731
5.00598	-1.73984
5.50775	-0.880451
5.99301	-0.00965359
5.00598	-1.73984
5.48611	-2.60702
6.00106	-3.47332
5.00598	-1.73984
5.99352	-1.72718
6.99476	-1.7314
5.99301	-0.00965359
6.50873	-0.867208
6.99476	-1.7314
5.99301	-0.00965359
6.99336	0.00674599
8.00156	0.0148322
6.99909	1.73123
7.48858	2.59297
8.01239	3.45162
8.01239	3.45162
8.50975	4.31805
8.99469	5.18613
8.01239	3.45162
8.48794	2.5889
8.991	1.73647
8.99469	5.18613
9.50484	6.05659
10.001	6.92401
8.99469	5.18613
9.50873	4.34207
10.0042	3.45087
11.0015	8.67346
11.4884	7.79966
12.0126	6.92758
12.0128	10.3865
12.5026	11.2637
12.9977	12.1281
12.0128	10.3865
13.011	10.4041
13.9889	10.389
12.9977	12.1281
13.4872	12.9927
13.9891	13.8607
12.9977	12.1281
13.9959	12.1152
14.9956	12.1128
13.9891	13.8607
14.5149	14.7304
14.9965	15.5907
13.9891	13.8607
14.5128	12.9834
14.9956	12.1128
13.9891	13.8607
15.0043	13.8683
16.0051	13.8545
14.9965	15.5907
15.4991	14.7078
16.0051	13.8545
16.0124	17.332
16.9966	17.3332
18.005	17.3274
17.0101	19.0609
18.001	19.045
18.9947	19.0562
18.0022	20.7923
18.4957	21.644
18.9901	22.5283
18.0022	20.7923
18.4863	19.9255
18.9947	19.0562
18.0022	20.7923
19.0065	20.7936
19.9896	20.7967
18.9901	22.5283
19.4907	21.6606
19.9896	20.7967
-8.00611	-27.7069
-7.49967	-26.8368
-7.00644	-25.9793
-8.00611	-27.7069
-7.00276	-27.7208
-6.00843	-27.7123
-7.00644	-25.9793
-6.48849	-26.8409
-6.00843	-27.7123
-6.00039	-24.24
-5.50755	-23.3778
-5.0041	-22.5248
-6.00039	-24.24
-5.48503	-25.1296
-5.01161	-25.9679
-6.00039	-24.24
-5.00057	-24.2627
-4.01423	-24.2554
-5.0041	-22.5248
-4.50659	-21.6394
-3.9907	-20.7979
-5.0041	-22.5248
-4.49585	-23.3975
-4.01423	-24.2554
-3.9907	-20.7979
-3.00969	-20.7731
-1.99318	-20.7926
-3.01032	-19.0616
-2.49137	-19.9316
-1.99318	-20.7926
-3.01032	-19.0616
-2.00375	-19.0512
-0.997647	-19.0562
-2.0141	-17.3074
-1.48884	-16.4456
-1.01233	-15.5745
-2.0141	-17.3074
-1.48583	-18.1794
-0.997647	-19.0562
-1.01233	-15.5745
-0.486691	-14.7318
0.0088153	-13.8486
-1.01233	-15.5745
-0.502086	-16.468
0.00343023	-17.3155
-1.01233	-15.5745
-0.0113596	-15.6034
0.991796	-15.5839
0.0088153	-13.8486
0.51125	-12.9956
1.01001	-12.1158
0.0088153	-13.8486
0.489981	-14.7236
0.991796	-15.5839
1.01001	-12.1158
1.50765	-11.2603
2.00439	-10.3857
2.00439	-10.3857
2.49009	-9.52932
3.00841	-8.67119
2.00439	-10.3857
2.51413	-11.2722
2.98992	-12.1181
2.00439	-10.3857
2.99434	-10.3977
3.98765	-10.4027
3.00841	-8.67119
3.49711	-9.51844
3.98765	-10.4027
3.00841	-8.67119
4.00277	-8.65678
4.99739	-8.65143
4.00463	-6.91635
4.50483	-6.06499
5.002	-5.20731
4.00463	-6.91635
4.4951	-7.80037
4.99739	-8.65143
4.00463	-6.91635
5.01264	-6.93824
6	-6.9282
5.002	-5.20731
5.48689	-6.07262
6	-6.9282
5.002	-5.20731
6.00181	-5.19486
6.99577	-5.20333
6.00106	-3.47332
6.50944	-4.34357
6.99577	-5.20333
6.00106	-3.47332
6.99138	-3.47765
8.0074	-3.46416
6.99476	-1.7314
7.50883	-2.59888
8.0074	-3.46416
8.00156	0.0148322
8.50222	-0.856249
8.99066	-1.72027
8.00156	0.0148322
8.98628	0.00455109
9.99644	0.00492038
8.991	1.73647
9.48771	0.872788
9.99644	0.00492038
8.991	1.73647
10.0068	1.74569
11.0017	1.71951
10.0042	3.45087
10.4868	4.32869
11.0032	5.20065
10.0042	3.45087
10.4869	2.60202
11.0017	1.71951
11.0032	5.20065
11.4857	6.05926
12.0126	6.92758
11.0032	5.20065
11.503	4.33156
11.9937	3.47862
12.0126	6.92758
12.4963	7.78395
12.9909	8.64915
12.0126	6.92758
12.4929	6.06929
12.9885	5.18991
12.9909	8.64915
13.4857	9.51838
13.9889	10.389
12.9909	8.64915
13.9901	8.66241
14.9973	8.65032
13.9889	10.389
14.4949	11.2465
14.9956	12.1128
13.9889	10.389
14.5003	9.51248
14.9973	8.65032
13.9889	10.389
15.0015	10.3992
15.9931	10.4023
14.9956	12.1128
16.0132	12.1254
17.0014	12.1146
16.0051	13.8545
16.5019	12.9959
17.0014	12.1146
17.0077	15.602
17.5141	16.4398
18.005	17.3274
18.005	17.3274
18.4976	18.197
18.9947	19.0562
18.005	17.3274
18.487	16.4557
18.9881	15.5966
18.9947	19.0562
19.5138	19.9159
19.9896	20.7967
18.9947	19.0562
19.5127	18.1855
20.0095	17.3257
18.9947	19.0562
19.994	19.0389
20.9864	19.0649
19.9896	20.7967
20.5093	19.927
20.9864	19.0649
-6.00843	-27.7123
-5.51012	-26.8412
-5.01161	-25.9679
-6.00843	-27.7123
-5.50784	-28.5697
-5.00297	-29.4484
-6.00843	-27.7123
-4.99429	-27.7129
-4.00218	-27.707
-5.01161	-25.9679
-3.99542	-25.9735
-3.01454	-25.9781
-4.01423	-24.2554
-3.49102	-25.1055
-3.01454	-25.9781
-4.01423	-24.2554
-2.99267	-24.2475
-2.00724	-24.2438
-1.99318	-20.7926
-1.51103	-19.9058
-0.997647	-19.0562
-0.997647	-19.0562
-0.506446	-18.1844
0.00343023	-17.3155
-0.997647	-19.0562
-0.489403	-19.9282
-0.00655239	-20.7868
0.00343023	-17.3155
0.987879	-17.3151
1.99267	-17.327
0.991796	-15.5839
1.51381	-14.7309
2.01438	-13.8643
2.98992	-12.1181
3.50009	-13.0009
4.0083	-13.8571
2.98992	-12.1181
4	-12.1371
4.9898	-12.1358
3.98765	-10.4027
4.50433	-11.2441
4.9898	-12.1358
4.99739	-8.65143
5.49844	-7.79094
6	-6.9282
4.99739	-8.65143
5.99969	-8.66167
6.99483	-8.65653
6	-6.9282
6.51074	-6.04815
6.99577	-5.20333
6	-6.9282
6.98757	-6.92621
8.01439	-6.93014
6.99577	-5.20333
7.51191	-4.33708
8.0074	-3.46416
6.99577	-5.20333
7.99115	-5.19143
9.00913	-5.19664
8.0074	-3.46416
8.49709	-2.60267
8.99066	-1.72027
8.0074	-3.46416
8.51322	-4.32318
9.00913	-5.19664
8.99066	-1.72027
9.50728	-0.852411
9.99644	0.00492038
9.99644	0.00492038
10.5057	0.856269
11.0017	1.71951
9.99644	0.00492038
10.5106	-0.866112
11.0035	-1.73217
11.0017	1.71951
11.9982	1.71808
13.0089	1.73471
11.9937	3.47862
12.497	2.59423
13.0089	1.73471
11.9937	3.47862
12.9894	3.45555
13.9964	3.45449
12.9885	5.18991
13.4918	4.3412
13.9964	3.45449
12.9885	5.18991
14.0059	5.19078
15.0022	5.1928
13.9877	6.9251
14.5049	7.78794
14.9973	8.65032
14.9973	8.65032
15.4953	9.5189
15.9931	10.4023
14.9973	8.65032
15.4883	7.80609
15.9964	6.92375
15.9931	10.4023
16.9865	10.3931
18.0146	10.3781
17.0014	12.1146
17.4992	12.992
18.0028	13.8636
17.0014	12.1146
17.5038	11.2597
18.0146	10.3781
17.0014	12.1146
17.9896	12.1192
19	12.136
18.0028	13.8636
18.5087	14.7326
18.9881	15.5966
18.0028	13.8636
18.5133	12.983
19	12.136
18.9881	15.5966
19.499	16.4632
20.0095	17.3257
18.9881	15.5966
20.0136	15.5861
20.9949	15.5864
20.0095	17.3257
20.9876	17.3309
21.9937	17.3143
20.9864	19.0649
22.0069	19.0547
23.0072	19.054
-5.00297	-29.4484
-4.49118	-28.5739
-4.00218	-27.707
-5.00297	-29.4484
-3.98672	-29.4452
-2.99299	-29.4373
-4.00218	-27.707
-3.51364	-26.8615
-3.01454	-25.9781
-4.00218	-27.707
-3.50514	-28.5799
-2.99299	-29.4373
-4.00218	-27.707
-2.9966	-27.716
-1.99159	-27.7058
-3.01454	-25.9781
-2.51375	-26.8419
-1.99159	-27.7058
-2.00724	-24.2438
-1.49054	-23.3903
-0.987343	-22.5268
-2.00724	-24.2438
-1.49619	-25.1056
-1.009	-25.9906
-0.987343	-22.5268
-0.504173	-21.6479
-0.00655239	-20.7868
-0.987343	-22.5268
-0.513877	-23.3896
-0.0124439	-24.2548
-0.987343	-22.5268
-0.0148409	-22.5073
1.01285	-22.5296
-0.00655239	-20.7868
0.511039	-19.9084
0.98941	-19.0592
-0.00655239	-20.7868
0.503959	-21.6518
1.01285	-22.5296
-0.00655239	-20.7868
0.995617	-20.7956
2.00205	-20.7952
0.98941	-19.0592
1.48834	-18.1916
1.99267	-17.327
0.98941	-19.0592
1.49387	-19.9281
2.00205	-20.7952
3.01373	-15.5965
3.48815	-14.7312
4.0083	-13.8571
4.0083	-13.8571
4.49068	-12.9888
4.9898	-12.1358
4.0083	-13.8571
4.51287	-14.7154
4.99895	-15.5882
4.9898	-12.1358
5.51257	-13.0004
6.01143	-13.8445
4.9898	-12.1358
5.99268	-12.11
7.00495	-12.1204
6.01325	-10.4009
6.50159	-9.53907
6.99483	-8.65653
6.99483	-8.65653
7.50765	-7.78511
8.01439	-6.93014
6.99483	-8.65653
7.49288	-9.53023
7.99183	-10.4024
8.01439	-6.93014
8.4892	-6.04938
9.00913	-5.19664
8.01439	-6.93014
8.49189	-7.78399
8.99325	-8.65256
8.01439	-6.93014
9.00839	-6.91724
9.99143	-6.93487
9.00913	-5.19664
9.50646	-4.33558
9.98766	-3.46357
9.00913	-5.19664
9.50919	-6.06951
9.99143	-6.93487
9.00913	-5.19664
9.99568	-5.19253
11.0101	-5.20439
9.98766	-3.46357
10.5077	-2.59487
11.0035	-1.73217
11.0035	-1.73217
11.509	-2.58989
12.0027	-3.47199
11.9896	-0.000919745
12.5135	0.854229
13.0089	1.73471
11.9896	-0.000919745
13.0009	0.0146754
13.9875	-0.00759362
13.9964	3.45449
14.4859	4.33894
15.0022	5.1928
13.9964	3.45449
14.4985	2.59358
15.0102	1.74696
13.9964	3.45449
14.994	3.45668
16.0073	3.47855
15.0022	5.1928
15.5003	6.0623
15.9964	6.92375
16.9912	8.65985
17.4866	9.52827
18.0146	10.3781
16.9912	8.65985
17.986	8.67388
19.0052	8.66136
18.0146	10.3781
18.4946	11.2648
19	12.136
18.0146	10.3781
18.4992	9.51161
19.0052	8.66136
18.0146	10.3781
19.0071	10.3896
19.99	10.4042
19	12.136
19.4938	12.9958
19.9889	13.8563
19	12.136
19.5061	11.2641
19.99	10.4042
19.9889	13.8563
20.5111	14.7171
20.9949	15.5864
19.9889	13.8563
21.0007	13.8693
22.0041	13.8536
20.9949	15.5864
21.4892	16.4507
21.9937	17.3143
21.9937	17.3143
22.507	18.1815
23.0072	19.054
21.9937	17.3143
22.4938	16.4424
23.0007	15.5773
21.9937	17.3143
22.9911	17.3253
23.9874	17.3193
23.0072	19.054
23.4942	18.1825
23.9874	17.3193
-2.99299	-29.4373
-2.50123	-28.5825
-1.99159	-27.7058
-2.99299	-29.4373
-1.99378	-29.4429
-1.00347	-29.4343
-1.99159	-27.7058
-1.50493	-26.8481
-1.009	-25.9906
-1.99159	-27.7058
-1.51442	-28.5652
-1.00347	-29.4343
-1.009	-25.9906
-0.492721	-25.1258
-0.0124439	-24.2548
-1.009	-25.9906
-0.502293	-26.851
0.0143238	-27.6996
-1.009	-25.9906
0.010107	-25.9678
0.994517	-25.975
-0.0124439	-24.2548
0.50243	-23.3826
1.01285	-22.5296
-0.0124439	-24.2548
1.00162	-24.2401
2.00769	-24.2387
1.01285	-22.5296
1.49128	-21.6451
2.00205	-20.7952
1.01285	-22.5296
1.48744	-23.3975
2.00769	-24.2387
2.00205	-20.7952
2.48719	-19.9186
2.99713	-19.0638
2.99713	-19.0638
3.50447	-18.1948
3.99402	-17.3229
2.99713	-19.0638
3.48796	-19.9203
4.00043	-20.7961
3.99402	-17.3229
4.50212	-18.1942
4.99093	-19.0393
3.99402	-17.3229
4.99766	-17.3282
5.99237	-17.3236
4.99895	-15.5882
5.50703	-14.7273
6.01143	-13.8445
4.99895	-15.5882
5.48534	-16.4639
5.99237	-17.3236
7.00495	-12.1204
7.51444	-12.9815
7.98546	-13.8582
7.00495	-12.1204
8.00593	-12.132
8.98659	-12.1185
7.99183	-10.4024
8.51488	-9.53902
8.99325	-8.65256
8.99325	-8.65256
9.51091	-7.79968
9.99143	-6.93487
8.99325	-8.65256
9.49536	-9.52721
9.99294	-10.3812
8.99325	-8.65256
9.98934	-8.66735
11.0071	-8.66423
9.99143	-6.93487
10.4968	-6.06144
11.0101	-5.20439
9.99143	-6.93487
10.4882	-7.79844
11.0071	-8.66423
9.99143	-6.93487
11.005	-6.94121
11.9864	-6.91506
11.0101	-5.20439
11.5108	-4.32862
12.0027	-3.47199
11.0101	-5.20439
11.513	-6.0691
11.9864	-6.91506
12.0027	-3.47199
12.5018	-4.31795
13.0002	-5.20753
12.0027	-3.47199
12.988	-3.45608
14.0015	-3.47844
12.9999	-1.73574
13.5076	-0.85122
13.9875	-0.00759362
12.9999	-1.73574
13.9928	-1.7179
15.0102	-1.73733
13.9875	-0.00759362
14.5013	0.878787
15.0102	1.74696
13.9875	-0.00759362
15.0139	0.00062111
15.9924	-0.00497808
15.0102	1.74696
15.4862	2.58735
16.0073	3.47855
15.0102	1.74696
16.0051	1.74264
17.0137	1.74611
16.0073	3.47855
16.4936	4.34122
17.0039	5.18549
17.0039	5.18549
17.4856	6.07382
18.0051	6.91458
17.0039	5.18549
17.4877	4.34479
18.0071	3.46464
18.0051	6.91458
18.492	6.0545
19.0045	5.19834
19.0052	8.66136
19.5	9.52362
19.99	10.4042
19.99	10.4042
20.5133	11.2686
21.001	12.1112
19.99	10.4042
20.4911	9.53826
20.9944	8.6457
21.001	12.1112
21.4856	12.9916
22.0041	13.8536
21.001	12.1112
21.488	11.2513
21.9945	10.3924
22.0041	13.8536
23.0059	13.8596
23.9914	13.8581
23.0007	15.5773
23.5111	16.4544
23.9874	17.3193
23.0007	15.5773
23.5047	14.735
23.9914	13.8581
23.0007	15.5773
23.9896	15.5893
24.9872	15.5944
-1.00347	-29.4343
-0.505652	-28.5692
0.0143238	-27.6996
-1.00347	-29.4343
0.00865396	-29.4312
1.00478	-29.4457
0.0143238	-27.6996
0.487515	-26.8509
0.994517	-25.975
0.0143238	-27.6996
0.506172	-28.5835
1.00478	-29.4457
0.994517	-25.975
1.49877	-25.1259
2.00769	-24.2387
0.994517	-25.975
1.48747	-26.8469
1.98713	-27.7229
0.994517	-25.975
1.99925	-25.9756
3.01229	-25.9794
2.00769	-24.2387
2.51255	-23.3953
2.99901	-22.5251
2.00769	-24.2387
2.4939	-25.1002
3.01229	-25.9794
2.00769	-24.2387
3.00699	-24.2376
3.99486	-24.2517
2.99901	-22.5251
3.49948	-21.6634
4.00043	-20.7961
2.99901	-22.5251
3.50433	-23.3924
3.99486	-24.2517
4.99093	-19.0393
5.50337	-18.1865
5.99237	-17.3236
4.99093	-19.0393
5.5142	-19.9095
6.00386	-20.7944
4.99093	-19.0393
5.98717	-19.0482
6.99169	-19.0583
5.99237	-17.3236
6.50987	-16.4438
7.00156	-15.5876
5.99237	-17.3236
7.00593	-17.3179
7.99214	-17.319
7.00156	-15.5876
7.51029	-14.7218
7.98546	-13.8582
7.00156	-15.5876
7.99141	-15.5779
9.00065	-15.5775
7.98546	-13.8582
8.50765	-14.713
9.00065	-15.5775
7.98546	-13.8582
8.99482	-13.8449
9.98668	-13.8423
8.98659	-12.1185
9.48786	-11.2695
9.99294	-10.3812
8.98659	-12.1185
9.49447	-12.9764
9.98668	-13.8423
9.99294	-10.3812
10.4936	-9.52363
11.0071	-8.66423
9.99294	-10.3812
10.5012	-11.2588
10.9906	-12.1323
9.99294	-10.3812
11.0041	-10.395
12.0036	-10.378
11.0071	-8.66423
11.5051	-9.53966
12.0036	-10.378
11.9864	-6.91506
12.5063	-6.06179
13.0002	-5.20753
11.9864	-6.91506
13.0127	-6.91431
14.0087	-6.9429
13.0002	-5.20753
13.4966	-6.04949
14.0087	-6.9429
13.0002	-5.20753
13.9899	-5.1953
15.002	-5.18505
14.0015	-3.47844
14.5121	-2.60435
15.0102	-1.73733
14.0015	-3.47844
14.4901	-4.32171
15.002	-5.18505
14.0015	-3.47844
15.0104	-3.45006
15.9905	-3.45891
15.0102	-1.73733
15.4941	-0.868659
15.9924	-0.00497808
15.0102	-1.73733
15.5012	-2.60789
15.9905	-3.45891
15.0102	-1.73733
15.9878	-1.7413
17.0097	-1.72563
15.9924	-0.00497808
16.4855	0.879381
17.0137	1.74611
15.9924	-0.00497808
17.003	-0.0145218
18.0056	-0.0145099
17.0137	1.74611
17.5038	2.58996
18.0071	3.46464
17.0137	1.74611
17.4857	0.861972
18.0056	-0.0145099
18.0071	3.46464
18.4899	4.32954
19.0045	5.19834
19.0045	5.19834
20.0004	5.21013
21.0076	5.18372
20.0058	6.94082
20.495	7.78296
20.9944	8.6457
20.0058	6.94082
20.4882	6.06525
21.0076	5.18372
20.9944	8.6457
21.5142	7.78826
22.003	6.91906
20.9944	8.6457
21.9871	8.6604
22.9889	8.65975
21.9945	10.3924
23.0057	10.3788
24.0083	10.3968
22.998	12.1314
23.513	11.2451
24.0083	10.3968
22.998	12.1314
23.9915	12.1376
24.9904	12.1354
23.9914	13.8581
25.0115	13.8501
25.9966	13.8441
1.00478	-29.4457
1.51437	-28.5766
1.98713	-27.7229
3.01229	-25.9794
3.49731	-25.1002
3.99486	-24.2517
3.01229	-25.9794
3.49577	-26.8567
3.99695	-27.7194
3.99486	-24.2517
4.49837	-23.3955
5.00201	-22.5135
3.99486	-24.2517
5.00312	-24.2637
6.00977	-24.2465
5.00201	-22.5135
5.49068	-21.657
6.00386	-20.7944
6.00386	-20.7944
6.51115	-19.9206
6.99169	-19.0583
6.00386	-20.7944
6.48854	-21.6477
6.99042	-22.5054
6.00386	-20.7944
6.99005	-20.7924
7.98525	-20.783
6.99169	-19.0583
7.49297	-19.9213
7.98525	-20.783
6.99169	-19.0583
8.0123	-19.0643
9.00099	-19.0528
7.99214	-17.319
8.49119	-16.4611
9.00065	-15.5775
9.00065	-15.5775
9.48691	-14.7278
9.98668	-13.8423
9.98668	-13.8423
10.5129	-14.7141
10.9998	-15.5924
10.9906	-12.1323
11.4895	-12.9885
12.0074	-13.871
10.9906	-12.1323
12.0105	-12.1169
13.0078	-12.1131
12.0036	-10.378
12.5033	-11.2607
13.0078	-12.1131
12.0036	-10.378
13.0013	-10.3793
14.0009	-10.3814
13.0101	-8.66635
13.5029	-7.78874
14.0087	-6.9429
13.0101	-8.66635
14.0131	-8.65557
15.0061	-8.6564
14.0087	-6.9429
14.4937	-6.06568
15.002	-5.18505
15.002	-5.18505
16.0016	-5.18865
17.0037	-5.19892
15.9905	-3.45891
16.5	-2.61114
17.0097	-1.72563
15.9905	-3.45891
16.9995	-3.45962
17.9913	-3.47797
17.0097	-1.72563
17.4967	-2.60522
17.9913	-3.47797
18.0056	-0.0145099
18.9875	-0.00540779
20.0092	-0.0080955
19.0129	1.73693
19.5029	0.864869
20.0092	-0.0080955
20.0054	3.47036
20.5056	4.33304
21.0076	5.18372
20.0054	3.47036
20.5127	2.5904
20.9896	1.74396
20.0054	3.47036
21.0078	3.47782
21.9943	3.45896
21.0076	5.18372
21.9964	5.20774
22.9987	5.20254
22.003	6.91906
22.5103	7.78876
22.9889	8.65975
22.9889	8.65975
23.5054	9.52268
24.0083	10.3968
22.9889	8.65975
23.5057	7.80552
24.003	6.93031
24.0083	10.3968
25.0142	10.3795
26.0046	10.3912
24.9904	12.1354
25.5126	11.2651
26.0046	10.3912
24.9904	12.1354
26.0025	12.1331
26.9975	12.1359
25.9966	13.8441
26.4997	12.9838
26.9975	12.1359
3.00441	-29.4462
3.50598	-28.5804
3.99695	-27.7194
3.00441	-29.4462
4.00697	-29.4439
5.00321	-29.4484
3.99695	-27.7194
4.49861	-26.8596
4.99076	-25.9742
4.99076	-25.9742
5.51473	-25.1267
6.00977	-24.2465
4.99076	-25.9742
6.00195	-25.9939
7.00886	-25.9763
6.00977	-24.2465
6.51197	-25.112
7.00886	-25.9763
6.00977	-24.2465
7.00628	-24.2589
7.98808	-24.2461
6.99042	-22.5054
7.50436	-21.6404
7.98525	-20.783
6.99042	-22.5054
7.49236	-23.3976
7.98808	-24.2461
6.99042	-22.5054
8.00597	-22.5068
8.99115	-22.529
7.98525	-20.783
9.00466	-20.7848
10.0015	-20.7795
9.00099	-19.0528
9.49555	-18.1835
10.0144	-17.3103
10.0144	-17.3103
10.5136	-16.4442
10.9998	-15.5924
10.0144	-17.3103
10.4929	-18.1861
10.9876	-19.0555
10.0144	-17.3103
11.0143	-17.3092
11.993	-17.3084
10.9998	-15.5924
11.4888	-16.4688
11.993	-17.3084
12.0074	-13.871
12.4884	-12.9886
13.0078	-12.1131
12.0074	-13.871
12.492	-14.7105
12.9876	-15.5846
12.0074	-13.871
13.0021	-13.8609
14.0007	-13.8535
13.0078	-12.1131
13.4971	-12.997
14.0007	-13.8535
14.0009	-10.3814
14.511	-9.53038
15.0061	-8.6564
14.0009	-10.3814
14.5087	-11.2527
15.0048	-12.1141
14.0009	-10.3814
14.9876	-10.4043
15.987	-10.3991
15.0061	-8.6564
15.4969	-7.79042
16.0012	-6.92531
15.0061	-8.6564
15.508	-9.52988
15.987	-10.3991
16.0012	-6.92531
16.5084	-6.05925
17.0037	-5.19892
16.0012	-6.92531
16.4922	-7.79226
16.9887	-8.664
16.0012	-6.92531
17.0011	-6.93636
18.0075	-6.92522
17.0037	-5.19892
17.49	-4.34327
17.9913	-3.47797
17.0037	-5.19892
17.989	-5.20016
19.0116	-5.18805
17.9913	-3.47797
18.5069	-2.5987
19.008	-1.74017
17.9913	-3.47797
18.9866	-3.46096
20.0084	-3.44928
19.008	-1.74017
19.5019	-2.59359
20.0084	-3.44928
20.0092	-0.0080955
20.5024	0.863007
20.9896	1.74396
20.0092	-0.0080955
21.0059	-0.0112425
22.0075	0.00768624
20.9896	1.74396
21.5129	2.6045
21.9943	3.45896
21.9943	3.45896
22.4872	4.33248
22.9987	5.20254
21.9943	3.45896
22.4965	2.59793
23.0081	1.74351
22.9987	5.20254
23.4976	6.0571
24.003	6.93031
22.9987	5.20254
23.5129	4.32742
23.9974	3.4649
22.9987	5.20254
23.9985	5.18741
25.009	5.20268
25.001	8.6658
25.5004	7.80507
25.9981	6.91447
26.0046	10.3912
26.4924	9.52877
26.9975	8.65096
26.0046	10.3912
26.9921	10.3882
27.9999	10.4066
5.00321	-29.4484
5.49644	-28.5883
5.9882	-27.7166
5.9882	-27.7166
7.00412	-27.726
8.00498	-27.7135
7.98808	-24.2461
8.50718	-25.1276
9.00529	-25.9923
7.98808	-24.2461
8.99566	-24.2456
9.9875	-24.2522
8.99115	-22.529
9.49541	-21.6471
10.0015	-20.7795
8.99115	-22.529
9.49613	-23.3728
9.9875	-24.2522
10.0015	-20.7795
10.5037	-19.9306
10.9876	-19.0555
10.0015	-20.7795
10.4994	-21.6381
10.9886	-22.5046
10.0015	-20.7795
10.9939	-20.7756
11.9995	-20.7825
10.9876	-19.0555
11.5114	-18.1966
11.993	-17.3084
10.9876	-19.0555
11.5095	-19.9226
11.9995	-20.7825
11.993	-17.3084
12.4929	-18.1808
13.014	-19.0494
11.993	-17.3084
12.9861	-17.3196
14.0025	-17.33
12.9876	-15.5846
13.5131	-14.7327
14.0007	-13.8535
12.9876	-15.5846
13.5092	-16.4576
14.0025	-17.33
12.9876	-15.5846
13.9963	-15.594
14.9987	-15.602
14.0007	-13.8535
14.4896	-14.7126
14.9987	-15.602
14.0007	-13.8535
15.0037	-13.8635
16.0112	-13.8697
15.0048	-12.1141
15.5064	-11.2605
15.987	-10.3991
15.0048	-12.1141
15.5017	-12.9868
16.0112	-13.8697
16.9887	-8.664
17.5066	-7.78449
18.0075	-6.92522
16.9887	-8.664
17.5089	-9.51837
18.0105	-10.398
16.9887	-8.664
17.9889	-8.65329
19.0095	-8.65295
18.0075	-6.92522
18.4916	-6.06051
19.0116	-5.18805
18.0075	-6.92522
18.4903	-7.79782
19.0095	-8.65295
19.0116	-5.18805
19.4868	-6.06951
20.0028	-6.92416
19.0116	-5.18805
19.9985	-5.1985
20.9868	-5.19964
20.0084	-3.44928
20.4884	-2.58501
20.9983	-1.73201
20.0084	-3.44928
20.5094	-4.34436
20.9868	-5.19964
20.9983	-1.73201
21.4937	-0.874205
22.0075	0.00768624
20.9983	-1.73201
21.5025	-2.59509
22.002	-3.45581
20.9983	-1.73201
22	-1.72078
23.0114	-1.72115
22.0075	0.00768624
22.4947	0.851097
23.0081	1.74351
22.0075	0.00768624
22.5053	-0.866028
23.0114	-1.72115
22.0075	0.00768624
22.9965	8.37765e-05
24.0115	0.00868209
23.0081	1.74351
23.4858	0.861481
24.0115	0.00868209
23.0081	1.74351
24.013	1.74271
24.9858	1.73123
23.9974	3.4649
24.4872	4.32737
25.009	5.20268
25.009	5.20268
25.4993	6.04859
25.9981	6.91447
25.009	5.20268
25.4909	4.31686
25.9866	3.46149
25.009	5.20268
25.993	5.19961
26.9985	5.19653
25.9981	6.91447
26.5145	6.05394
26.9985	5.19653
25.9981	6.91447
27.0058	6.92072
27.9984	6.93901
26.9975	8.65096
27.4901	9.5174
27.9999	10.4066
26.9975	8.65096
27.4861	7.80867
27.9984	6.93901
8.00498	-27.7135
8.49424	-26.834
9.00529	-25.9923
9.9875	-24.2522
10.5045	-23.3812
10.9886	-22.5046
9.9875	-24.2522
10.4896	-25.112
11.0061	-25.973
10.9886	-22.5046
11.5041	-21.6475
11.9995	-20.7825
10.9886	-22.5046
11.503	-23.3917
12.0047	-24.2595
11.9995	-20.7825
12.4957	-19.9039
13.014	-19.0494
13.014	-19.0494
13.5056	-18.1921
14.0025	-17.33
13.014	-19.0494
13.5021	-19.9145
13.9889	-20.7845
14.0025	-17.33
14.5109	-16.4433
14.9987	-15.602
14.0025	-17.33
15.0007	-17.3225
16.0113	-17.3145
14.9987	-15.602
15.5099	-16.449
16.0113	-17.3145
14.9987	-15.602
16.0036	-15.5757
17.0081	-15.5886
16.0112	-13.8697
17.009	-13.8563
18.0102	-13.8479
16.998	-12.1231
17.5023	-11.2595
18.0105	-10.398
18.0105	-10.398
18.4862	-9.51562
19.0095	-8.65295
18.0105	-10.398
18.9872	-10.3875
20.0041	-10.3872
19.0095	-8.65295
19.5032	-7.79542
20.0028	-6.92416
19.0095	-8.65295
19.4877	-9.51953
20.0041	-10.3872
20.0028	-6.92416
20.9946	-6.92012
22.0099	-6.91728
20.9868	-5.19964
21.4938	-6.05479
22.0099	-6.91728
20.9868	-5.19964
22.0136	-5.20838
23.0032	-5.18744
22.002	-3.45581
22.5129	-4.31813
23.0032	-5.18744
23.0114	-1.72115
23.4882	-0.859208
24.0115	0.00868209
23.0114	-1.72115
23.9936	-1.721
24.9938	-1.71872
24.0115	0.00868209
24.4895	-0.85724
24.9938	-1.71872
24.9858	1.73123
25.5038	0.854679
26.0059	-0.00223451
24.9858	1.73123
25.9997	1.74345
26.9989	1.73989
25.9866	3.46149
26.5147	4.33651
26.9985	5.19653
25.9866	3.46149
26.513	2.60969
26.9989	1.73989
25.9866	3.46149
26.9853	3.46787
27.9905	3.46418
9.99162	-27.7145
10.4932	-26.8432
11.0061	-25.973
11.0061	-25.973
12.0046	-25.993
12.9955	-25.9783
12.0047	-24.2595
12.5101	-23.3784
13.0026	-22.5066
12.0047	-24.2595
12.5097	-25.1109
12.9955	-25.9783
12.0047	-24.2595
13.0042	-24.2357
14.0017	-24.2559
13.0026	-22.5066
13.9968	-22.5232
14.9997	-22.5029
13.9889	-20.7845
14.5124	-19.9211
15.0107	-19.0489
15.0107	-19.0489
15.5105	-18.1751
16.0113	-17.3145
15.0107	-19.0489
16.014	-19.0527
17.0094	-19.0508
16.0113	-17.3145
16.5028	-18.1962
17.0094	-19.0508
16.0113	-17.3145
17.0129	-17.3172
18.0058	-17.3311
17.0081	-15.5886
17.4992	-14.7276
18.0102	-13.8479
17.0081	-15.5886
17.5065	-16.4436
18.0058	-17.3311
18.0102	-13.8479
18.5097	-13.0004
18.9963	-12.1254
18.9963	-12.1254
19.5063	-11.2483
20.0041	-10.3872
18.9963	-12.1254
19.4897	-12.9788
20.0136	-13.8597
20.0041	-10.3872
20.5104	-11.2708
21.0057	-12.1343
20.0041	-10.3872
20.9854	-10.4014
21.9959	-10.3817
20.9888	-8.65761
21.4998	-9.5304
21.9959	-10.3817
20.9888	-8.65761
21.986	-8.66343
23.0116	-8.65086
22.0099	-6.91728
22.4853	-6.06906
23.0032	-5.18744
23.0032	-5.18744
23.4909	-4.32905
23.9992	-3.46619
23.0032	-5.18744
23.4984	-6.06742
23.9978	-6.92415
23.0032	-5.18744
24.0007	-5.18501
25.0109	-5.20076
23.9992	-3.46619
24.5088	-2.59893
24.9938	-1.71872
23.9992	-3.46619
24.511	-4.316
25.0109	-5.20076
24.9938	-1.71872
25.4864	-2.61063
26	-3.4641
26.0059	-0.00223451
26.513	0.879973
26.9989	1.73989
26.0059	-0.00223451
26.496	-0.864675
26.9989	-1.73913
26.9989	1.73989
27.4942	2.60869
27.9905	3.46418
26.9989	1.73989
27.5129	0.874789
27.9904	-0.0119074
26.9989	1.73989
27.9863	1.72582
29.0122	1.74128
27.9905	3.46418
28.5016	4.33556
29.0133	5.20888
27.9905	3.46418
28.515	2.59915
29.0122	1.74128
12.9955	-25.9783
13.5003	-25.1061
14.0017	-24.2559
12.9955	-25.9783
14.0047	-25.9889
15.009	-25.9852
14.0017	-24.2559
14.5073	-25.1027
15.009	-25.9852
14.0017	-24.2559
14.9943	-24.2508
15.9921	-24.2396
14.9997	-22.5029
15.5007	-23.3789
15.9921	-24.2396
14.9997	-22.5029
16.0096	-22.5036
17.0058	-22.5171
15.9883	-20.7941
16.4857	-19.9313
17.0094	-19.0508
15.9883	-20.7941
16.5	-21.6392
17.0058	-22.5171
15.9883	-20.7941
17.012	-20.7774
18.0071	-20.7794
17.0094	-19.0508
17.487	-18.1915
18.0058	-17.3311
17.0094	-19.0508
17.989	-19.0487
18.993	-19.0592
18.0058	-17.3311
18.4873	-16.4578
18.9883	-15.5815
18.0058	-17.3311
18.5008	-18.1933
18.993	-19.0592
18.0058	-17.3311
19.005	-17.3113
20.008	-17.3077
18.9883	-15.5815
19.5019	-14.7146
20.0136	-13.8597
20.0136	-13.8597
21.0086	-13.8673
21.9923	-13.8693
21.0057	-12.1343
21.5128	-11.2568
21.9959	-10.3817
21.0057	-12.1343
21.4929	-13.0037
21.9923	-13.8693
21.0057	-12.1343
22.0125	-12.1255
22.996	-12.1384
21.9959	-10.3817
22.5003	-11.264
22.996	-12.1384
21.9959	-10.3817
22.9917	-10.3929
24.0073	-10.3899
23.0116	-8.65086
23.5093	-7.7837
23.9978	-6.92415
23.0116	-8.65086
23.4879	-9.52145
24.0073	-10.3899
23.0116	-8.65086
24.0092	-8.67191
25.0066	-8.65488
23.9978	-6.92415
24.5104	-7.80727
25.0066	-8.65488
23.9978	-6.92415
25.0026	-6.92212
25.9888	-6.93613
25.0109	-5.20076
25.5149	-4.33091
26	-3.4641
25.0109	-5.20076
25.9928	-5.19363
26.9973	-5.19616
26	-3.4641
26.4982	-4.33302
26.9973	-5.19616
26.9989	-1.73913
27.9957	-1.7453
28.9936	-1.74092
27.9904	-0.0119074
28.4965	-0.85192
28.9936	-1.74092
15.9921	-24.2396
16.4905	-23.3871
17.0058	-22.5171
17.0058	-22.5171
17.5113	-21.6407
18.0071	-20.7794
17.0058	-22.5171
18.0028	-22.5127
19.0013	-22.5108
18.0071	-20.7794
18.4952	-19.92
18.993	-19.0592
18.0071	-20.7794
18.487	-21.637
19.0013	-22.5108
18.0071	-20.7794
19.0025	-20.7839
19.9907	-20.7737
18.993	-19.0592
19.504	-18.188
20.008	-17.3077
20.008	-17.3077
20.4893	-16.4469
20.9976	-15.5752
20.008	-17.3077
20.5103	-18.1892
20.9902	-19.0603
20.008	-17.3077
20.9881	-17.3293
22.0001	-17.3307
20.9976	-15.5752
21.4856	-14.7199
21.9923	-13.8693
20.9976	-15.5752
21.4887	-16.4564
22.0001	-17.3307
20.9976	-15.5752
22.0073	-15.593
22.9858	-15.5866
21.9923	-13.8693
22.9894	-13.853
24.0011	-13.8563
22.996	-12.1384
23.5142	-11.2525
24.0073	-10.3899
24.0073	-10.3899
24.5094	-9.5258
25.0066	-8.65488
25.0066	-8.65488
25.5078	-9.52523
25.9943	-10.3949
25.0066	-8.65488
25.9944	-8.67239
27.0016	-8.66487
25.9888	-6.93613
26.5064	-7.79227
27.0016	-8.66487
26.9973	-5.19616
27.5144	-4.33258
28	-3.44991
26.9973	-5.19616
27.4938	-6.06268
28.0124	-6.91454
28	-3.44991
28.5115	-2.59423
28.9936	-1.74092
28	-3.44991
28.5136	-4.32787
28.9984	-5.18378
19.9907	-20.7737
20.4938	-19.9329
20.9902	-19.0603
20.9902	-19.0603
21.9856	-19.0531
22.9898	-19.0503
22.0001	-17.3307
22.4879	-18.1788
22.9898	-19.0503
22.0001	-17.3307
23.0052	-17.3065
24.0043	-17.3176
22.9858	-15.5866
23.5094	-14.7194
24.0011	-13.8563
22.9858	-15.5866
23.9941	-15.5836
24.9959	-15.5817
24.0011	-13.8563
24.51	-12.9928
25.0096	-12.1101
25.0096	-12.1101
25.4851	-12.9757
26.011	-13.8688
25.0096	-12.1101
25.9925	-12.1297
27.0025	-12.139
25.9943	-10.3949
26.5041	-9.54126
27.0016	-8.66487
25.9943	-10.3949
26.9892	-10.4038
27.9894	-10.392
27.0016	-8.66487
27.5088	-7.78469
28.0124	-6.91454
28.0124	-6.91454
28.4925	-6.072
28.9984	-5.18378
22.9898	-19.0503
23.5013	-18.192
24.0043	-17.3176
24.0043	-17.3176
24.4966	-16.447
24.9959	-15.5817
26.011	-13.8688
26.4936	-12.9967
27.0025	-12.139
27.0025	-12.139
27.4943	-11.2475
27.9894	-10.392
-27.5034	11.2557
-26.9864	12.1175
-26.4951	12.9838
-27.5137	9.53846
-27.0114	8.65093
-26.4976	7.79015
-27.0059	10.3898
-25.9928	10.383
-24.998	10.4071
-26.4951	12.9838
-26.0035	13.866
-25.4952	14.7092
-24.5014	14.7239
-24.0113	13.8613
-23.4997	13.0016
-24.0105	15.5817
-22.995	15.5818
-21.9973	15.5893
-22.9885	17.3102
-21.9974	17.3292
-21.0105	17.3308
-22.5103	18.1807
-21.9974	17.3292
-21.4889	16.4558
-28.5002	4.33177
-28.0061	3.45288
-27.5146	2.58806
-28.0084	5.1946
-27.0146	5.20377
-26.0011	5.1993
-27.4996	7.78498
-27.0114	8.65093
-26.4859	9.53697
-27.4955	6.06963
-27.0146	5.20377
-26.4958	4.34498
-26.4859	9.53697
-25.9928	10.383
-25.4975	11.2517
-25.4975	11.2517
-24.9872	12.1301
-24.5009	12.9767
-24.998	10.4071
-23.9935	10.3957
-22.9978	10.387
-24.5009	12.9767
-24.0113	13.8613
-23.4943	14.7325
-23.4943	14.7325
-22.995	15.5818
-22.5067	16.4601
-23.4997	13.0016
-22.9915	12.1142
-22.5129	11.2589
-23.007	13.8522
-21.9916	13.8472
-21.0018	13.8462
-22.5067	16.4601
-21.9974	17.3292
-21.4863	18.177
-21.9973	15.5893
-21.0041	15.5993
-20.0145	15.5944
-21.4863	18.177
-20.9972	19.066
-20.4891	19.9134
-20.4939	18.1756
-19.9918	17.3319
-19.4999	16.4479
-19.5123	19.9232
-19.0141	19.0596
-18.5049	18.1989
-27.5146	2.58806
-26.9931	1.72031
-26.506	0.873677
-25.4963	7.80381
-25.0118	8.64812
-24.5128	9.52001
-24.4981	7.80176
-23.9953	6.93719
-23.5021	6.04876
-24.0076	8.67458
-22.9912	8.66006
-22.0148	8.66639
-22.9978	10.387
-21.9939	10.3951
-20.9875	10.4052
-22.5129	11.2589
-21.9939	10.3951
-21.5082	9.51943
-21.9907	12.1148
-20.9983	12.1201
-19.9932	12.1135
-21.5059	13.0053
-20.9983	12.1201
-20.4929	11.2542
-20.0145	15.5944
-19.0148	15.6006
-18.0014	15.5872
-16.4952	21.6357
-15.9881	20.7956
-15.5107	19.9166
-14.5135	25.1154
-14.0048	24.2529
-13.5011	23.3788
-28.5054	-0.858262
-27.9943	0.00331371
-27.4963	0.875927
-28.5093	-2.60837
-28.01	-3.4687
-27.5135	-4.32755
-26.506	0.873677
-25.989	0.00588612
-25.4974	-0.860736
-24.495	4.32613
-23.9989	3.47827
-23.5067	2.59823
-23.4883	7.79906
-22.9912	8.66006
-22.5077	9.5221
-23.015	6.91898
-22.0027	6.91745
-21.0148	6.9376
-22.5077	9.5221
-21.9939	10.3951
-21.4963	11.2716
-22.0148	8.66639
-20.9886	8.66135
-20.007	8.66145
-21.4963	11.2716
-20.9983	12.1201
-20.4947	12.9906
-21.5082	9.51943
-20.9886	8.66135
-20.4977	7.78554
-20.4947	12.9906
-19.9853	13.8441
-19.4939	14.71
-20.4929	11.2542
-19.9866	10.4032
-19.4991	9.52878
-19.4939	14.71
-19.0148	15.6006
-18.4856	16.4489
-19.5102	12.9936
-18.987	12.1289
-18.4939	11.2581
-18.0014	15.5872
-16.9935	15.5815
-15.9994	15.5759
-16.9945	17.328
-15.9949	17.3059
-14.9859	17.3197
-16.4924	19.9098
-15.9881	20.7956
-15.504	21.642
-15.504	21.642
-15.0148	22.5181
-14.5032	23.3968
-14.9888	20.7935
-13.9879	20.7821
-12.9994	20.7838
-14.5032	23.3968
-14.0048	24.2529
-13.4951	25.1109
-13.5011	23.3788
-12.9987	22.5303
-12.4986	21.6646
-27.5135	-4.32755
-26.9951	-5.19831
-26.5089	-6.07156
-26.9966	-3.46877
-25.9897	-3.45365
-24.9871	-3.47353
-25.4974	-0.860736
-24.9897	-1.73445
-24.5038	-2.58518
-25.0107	0.00323832
-23.985	-0.00410129
-23.0116	-0.00409669
-24.5117	0.865534
-23.985	-0.00410129
-23.5082	-0.878841
-23.5067	2.59823
-23.0138	1.71716
-22.4861	0.864489
-20.4977	7.78554
-20.0125	6.92289
-19.4868	6.07635
-18.4939	11.2581
-17.9982	10.3808
-17.4885	9.5312
-17.4974	12.996
-16.9854	12.1198
-16.495	11.2553
-17.0096	13.8592
-16	13.8637
-14.9861	13.8492
-15.9994	15.5759
-14.9968	15.5898
-14.0082	15.6032
-14.9859	17.3197
-13.9969	17.3065
-12.9924	17.3246
-13.4876	19.9264
-12.9955	19.0531
-12.5044	18.1739
-12.4986	21.6646
-11.9961	20.7994
-11.4959	19.9292
-11.4998	25.1281
-11.0128	25.9948
-10.4997	26.8572
-10.4987	25.1106
-10.0024	24.2636
-9.49245	23.37
-9.99142	25.9808
-9.00498	25.9839
-7.99732	25.9701
-8.99528	27.7109
-8.00141	27.707
-7.01084	27.7209
-26.5089	-6.07156
-26.0099	-6.94039
-25.5022	-7.7809
-25.4884	-2.58817
-24.9897	-1.73445
-24.4876	-0.856981
-24.9871	-3.47353
-23.9999	-3.45401
-23.0078	-3.46741
-22.4861	0.864489
-22.0076	-0.0031433
-21.5066	-0.878269
-19.4943	7.79634
-18.9875	8.67522
-18.4963	9.52967
-19.4868	6.07635
-19.0138	5.1939
-18.5073	4.33053
-18.4963	9.52967
-17.9982	10.3808
-17.5101	11.26
-17.5101	11.26
-16.9854	12.1198
-16.503	12.978
-16.503	12.978
-16	13.8637
-15.4862	14.7369
-15.4862	14.7369
-14.9968	15.5898
-14.501	16.4566
-14.9861	13.8492
-14.0061	13.8524
-13.0014	13.8494
-14.501	16.4566
-13.9969	17.3065
-13.494	18.1737
-14.0082	15.6032
-12.9927	15.5755
-12.0053	15.5971
-13.494	18.1737
-12.9955	19.0531
-12.4983	19.9182
-12.5044	18.1739
-11.9862	17.318
-11.5142	16.4608
-11.9933	19.0631
-11.0106	19.0576
-9.99619	19.0386
-11.4959	19.9292
-11.0106	19.0576
-10.505	18.1887
-10.4984	23.3943
-10.0024	24.2636
-9.49415	25.1061
-10.5143	21.6587
-9.98665	20.7797
-9.48523	19.9308
-9.49415	25.1061
-9.00498	25.9839
-8.4907	26.8431
-9.01458	24.2531
-7.99953	24.2478
-7.00838	24.2417
-7.99732	25.9701
-6.98941	25.9739
-6.00124	25.9896
-27.5145	-11.2533
-27.0126	-12.1378
-26.5033	-13.0005
-26.5104	-7.78855
-26.0099	-6.94039
-25.5019	-6.05841
-25.5019	-6.05841
-24.9858	-5.2046
-24.5043	-4.31765
-24.9863	-6.93646
-24.0023	-6.92339
-23.0003	-6.91544
-24.5043	-4.31765
-23.9999	-3.45401
-23.4908	-2.60367
-23.4908	-2.60367
-22.9876	-1.72374
-22.5037	-0.853913
-22.5037	-0.853913
-22.0076	-0.0031433
-21.5121	0.873883
-21.5121	0.873883
-21.0075	1.73889
-20.4873	2.60967
-21.5066	-0.878269
-20.9856	-1.73589
-20.5082	-2.61197
-20.4873	2.60967
-19.9889	3.45537
-19.4923	4.33992
-20.5016	0.857432
-20.0055	-0.00595963
-19.5137	-0.877333
-19.4923	4.33992
-19.0138	5.1939
-18.5122	6.07014
-17.9914	5.2028
-16.9926	5.21105
-16.0098	5.18478
-15.9993	8.64671
-14.9861	8.66602
-14.0063	8.65964
-14.9903	10.3999
-13.9989	10.4065
-12.9927	10.4019
-13.488	14.7118
-12.9927	15.5755
-12.5089	16.4518
-10.5076	19.9177
-9.98665	20.7797
-9.50504	21.6473
-10.505	18.1887
-10.0094	17.3099
-9.50411	16.4529
-9.0136	20.7812
-7.9972	20.775
-6.9912	20.7788
-6.00124	25.9896
-5.00801	25.9673
-4.01042	25.995
-5.49008	26.8459
-5.00801	25.9673
-4.50507	25.1286
-26.5059	-11.2698
-26.0101	-10.3871
-25.505	-9.51409
-26.5033	-13.0005
-26.0026	-13.855
-25.513	-14.732
-25.505	-9.51409
-25.0078	-8.66796
-24.5009	-7.80395
-23.5111	-7.79147
-22.9909	-8.66052
-22.5046	-9.52636
-23.0003	-6.91544
-21.9915	-6.94101
-21.0025	-6.92736
-22.4935	-6.07652
-21.9915	-6.94101
-21.504	-7.78891
-20.5082	-2.61197
-19.9858	-3.46999
-19.4905	-4.33917
-19.5137	-0.877333
-18.9997	-1.74672
-18.49	-2.60967
-18.9951	0.0109966
-18.0008	0.0105286
-17.0031	0.0056452
-16.5146	6.06995
-16.0063	6.93252
-15.4887	7.8005
-16.0098	5.18478
-14.9871	5.19436
-14.0025	5.1813
-15.4887	7.8005
-14.9861	8.66602
-14.5082	9.52394
-15.5039	6.07598
-14.9871	5.19436
-14.4894	4.31698
-14.5082	9.52394
-13.9989	10.4065
-13.5005	11.2449
-14.5122	7.80766
-14.0065	6.91533
-13.5141	6.05035
-14.0063	8.65964
-12.9985	8.66075
-12.0098	8.6656
-13.5005	11.2449
-12.9913	12.1176
-12.5149	12.9974
-12.9927	10.4019
-12.0076	10.3971
-11.0131	10.3878
-12.5149	12.9974
-12.0085	13.8472
-11.4971	14.7172
-9.50844	18.1795
-9.00858	19.0657
-8.50415	19.9108
-9.01228	17.3125
-8.00409	17.3163
-7.00676	17.3085
-7.51151	19.906
-7.00291	19.0448
-6.50653	18.1963
-6.9912	20.7788
-6.01419	20.7939
-5.00873	20.7987
-5.50911	25.1094
-5.00801	25.9673
-4.49535	26.8458
-4.49535	26.8458
-4.01386	27.7121
-3.51368	28.5747
-3.49619	26.8441
-3.00794	25.9663
-2.49469	25.1025
-25.513	-14.732
-24.993	-15.577
-24.5072	-16.4553
-24.5104	-11.2673
-23.9913	-10.397
-23.4868	-9.53161
-24.4945	-12.9869
-23.9985	-13.8481
-23.4965	-14.7214
-24.0113	-12.1359
-22.9911	-12.113
-21.9988	-12.1109
-23.4868	-9.53161
-22.9909	-8.66052
-22.4996	-7.7865
-23.4998	-11.2526
-22.9911	-12.113
-22.5043	-12.9975
-22.5046	-9.52636
-21.9985	-10.3975
-21.5009	-11.2677
-21.9968	-8.64801
-20.99	-8.65506
-19.9964	-8.65395
-21.0025	-6.92736
-20.0001	-6.92915
-19.0041	-6.92751
-19.5028	-2.5904
-18.9997	-1.74672
-18.4885	-0.867123
-18.9894	-3.46399
-18.0025	-3.4606
-16.988	-3.458
-17.9916	-1.71902
-17.0099	-1.74005
-15.9923	-1.7434
-17.4913	-0.877131
-17.0099	-1.74005
-16.49	-2.58657
-15.9907	1.74146
-15.0104	1.73929
-14.0097	1.7237
-15.514	2.60768
-15.0104	1.73929
-14.5037	0.851826
-14.9909	3.45067
-14.0005	3.47434
-12.9943	3.45861
-14.4894	4.31698
-14.0005	3.47434
-13.4853	2.61172
-14.0025	5.1813
-13.012	5.19431
-11.9985	5.19196
-13.5043	7.7817
-12.9985	8.66075
-12.5084	9.53766
-12.5084	9.53766
-12.0076	10.3971
-11.5051	11.2696
-12.0098	8.6656
-11.0048	8.6522
-10.0134	8.66709
-11.5051	11.2696
-11.0082	12.1255
-10.5109	13.0027
-11.497	9.53841
-11.0048	8.6522
-10.5135	7.79017
-11.0131	10.3878
-9.99312	10.386
-8.99453	10.3942
-10.5109	13.0027
-9.98775	13.8494
-9.48848	14.7255
-9.48848	14.7255
-9.0047	15.5983
-8.49494	16.4546
-8.49494	16.4546
-8.00409	17.3163
-7.50689	18.1761
-7.00676	17.3085
-6.00831	17.3217
-5.00274	17.3109
-6.50653	18.1963
-6.00831	17.3217
-5.49829	16.4668
-3.5073	25.1028
-3.00794	25.9663
-2.51485	26.8589
-2.51485	26.8589
-1.99708	27.7103
-1.50831	28.5717
-24.5072	-16.4553
-24.006	-17.3142
-23.5014	-18.1932
-24.0063	-15.5852
-22.997	-15.5889
-21.9964	-15.6009
-23.4965	-14.7214
-22.997	-15.5889
-22.5023	-16.4651
-22.5043	-12.9975
-22	-13.8564
-21.5114	-14.7188
-19.4943	-7.79833
-18.9909	-8.66643
-18.5094	-9.52194
-19.0041	-6.92751
-17.9896	-6.93476
-17.0022	-6.92388
-15.9923	-1.7434
-14.9961	-1.72455
-14.0014	-1.74211
-14.0097	1.7237
-13.0021	1.72216
-11.9946	1.71857
-13.4886	4.32178
-13.012	5.19431
-12.4965	6.07085
-13.4853	2.61172
-13.0021	1.72216
-12.4895	0.85861
-12.4965	6.07085
-11.9992	6.93931
-11.5115	7.80101
-11.9985	5.19196
-10.9882	5.21044
-9.99878	5.18122
-10.5135	7.79017
-10.0139	6.94153
-9.51415	6.05741
-10.0134	8.66709
-9.00057	8.65147
-7.98937	8.64869
-8.99453	10.3942
-8.00165	10.3937
-6.99259	10.3997
-8.51357	12.9864
-8.01424	13.8561
-7.50273	14.7322
-7.50273	14.7322
-7.00507	15.5894
-6.49218	16.4586
-7.514	12.9799
-6.99454	12.1313
-6.49065	11.2704
-6.50504	14.7108
-6.00031	13.8479
-5.48559	12.987
-3.50508	21.6649
-2.99613	22.5265
-2.51129	23.3688
-2.51129	23.3688
-2.00579	24.2578
-1.51007	25.1285
-1.98919	22.5041
-0.987992	22.5183
-0.0131532	22.5115
-1.51007	25.1285
-1.00939	25.9901
-0.50268	26.8463
-0.50268	26.8463
-0.0105051	27.7046
0.504366	28.5658
-0.509985	25.1219
-0.0117879	24.2589
0.485913	23.3745
-23.0091	-17.3205
-22.0123	-17.3294
-21.0047	-17.3067
-21.9964	-15.6009
-21.0134	-15.5973
-20.0112	-15.5824
-21.5114	-14.7188
-21.0134	-15.5973
-20.4948	-16.4577
-18.5002	-7.79921
-17.9896	-6.93476
-17.4901	-6.0692
-18.5094	-9.52194
-18.0065	-10.3831
-17.5053	-11.2562
-17.4901	-6.0692
-17.01	-5.19017
-16.4877	-4.33838
-14.0014	-1.74211
-13.0103	-1.72151
-11.9875	-1.71937
-11.509	2.60784
-11.0065	1.74138
-10.4862	0.880891
-9.99878	5.18122
-9.00929	5.21035
-8.0064	5.19675
-9.51415	6.05741
-9.00929	5.21035
-8.49671	4.34186
-7.98937	8.64869
-6.98949	8.65122
-5.99246	8.67309
-7.50012	11.2668
-6.99454	12.1313
-6.49542	13.004
-7.49545	9.52204
-6.98949	8.65122
-6.50545	7.7939
-6.99259	10.3997
-6.01274	10.3942
-4.99074	10.3978
-6.49065	11.2704
-6.01274	10.3942
-5.48559	9.51354
-6.00851	12.1318
-5.00478	12.1368
-4.00498	12.1101
-3.98608	15.5805
-3.0015	15.6008
-1.99017	15.5785
-2.49434	18.1838
-1.98836	17.3118
-1.49383	16.4604
-1.50311	21.664
-0.987992	22.5183
-0.4929	23.3856
-0.4929	23.3856
-0.0117879	24.2589
0.487207	25.1002
-0.0131532	22.5115
1.00901	22.517
2.0094	22.5053
2.51014	26.8334
2.99519	25.9759
3.49892	25.11
3.48664	28.5655
4.00282	27.7116
4.48663	26.8495
-22.5117	-18.1898
-22.0123	-17.3294
-21.4958	-16.442
-21.4958	-16.442
-21.0134	-15.5973
-20.504	-14.7093
-20.0112	-15.5824
-18.9924	-15.5787
-17.9876	-15.5947
-18.4944	-11.2451
-18.0065	-10.3831
-17.4945	-9.52471
-17.4945	-9.52471
-16.9872	-8.6661
-16.4899	-7.80054
-17.0148	-10.3959
-15.9884	-10.3855
-14.9862	-10.3923
-16.4899	-7.80054
-15.9864	-6.92294
-15.4865	-6.07313
-16.4929	-9.51342
-15.9884	-10.3855
-15.4889	-11.2701
-15.9986	-8.65215
-14.9962	-8.65818
-13.9857	-8.66176
-14.505	-6.05517
-13.9923	-6.93661
-13.4926	-7.78813
-13.9933	-5.20648
-12.9906	-5.20741
-11.9953	-5.1975
-12.9951	-3.45976
-11.9935	-3.4741
-11.0083	-3.47788
-12.4864	-0.864101
-12.0035	0.00420071
-11.5112	0.861811
-12.5114	-2.59823
-11.9935	-3.4741
-11.5076	-4.31546
-10.4862	0.880891
-10.0083	0.00552304
-9.51299	-0.854695
-8.0064	5.19675
-6.9885	5.19937
-5.99254	5.19348
-7.48908	6.05265
-6.9885	5.19937
-6.51469	4.33544
-6.50545	7.7939
-5.98885	6.91437
-5.51069	6.06349
-5.48559	9.51354
-5.00383	8.64826
-4.50058	7.80586
-4.99074	10.3978
-3.9963	10.3874
-2.9958	10.4007
-4.00498	12.1101
-3.00784	12.1353
-1.99716	12.1106
-1.99017	15.5785
-0.999792	15.5779
-0.00205754	15.5963
-1.49383	16.4604
-0.999792	15.5779
-0.501697	14.7243
-1.00731	17.3074
0.00308117	17.3293
0.996829	17.3242
-0.498839	19.9043
-0.00465211	20.798
0.489041	21.6392
-0.00793497	19.0487
1.01273	19.0668
2.00799	19.0596
0.489041	21.6392
1.00901	22.517
1.50267	23.3679
0.493468	19.9132
1.01273	19.0668
1.50939	18.1989
1.50267	23.3679
1.99633	24.2631
2.49058	25.1038
2.50349	23.3695
2.9925	22.5297
3.49146	21.6372
3.00907	24.2439
4.00085	24.255
4.99523	24.2515
3.49892	25.11
4.00085	24.255
4.48896	23.3749
4.48663	26.8495
5.00592	25.9774
5.4899	25.1121
-17.9876	-15.5947
-17.004	-15.5983
-15.9896	-15.6028
-16.5039	-11.2452
-15.9884	-10.3855
-15.4853	-9.53557
-15.4889	-11.2701
-15.0088	-12.1298
-14.5011	-12.9947
-13.9857	-8.66176
-12.994	-8.64619
-12.0036	-8.64747
-13.4926	-7.78813
-12.994	-8.64619
-12.5142	-9.51465
-12.5043	-4.33898
-11.9935	-3.4741
-11.5083	-2.60451
-11.9953	-5.1975
-10.9935	-5.19776
-9.994	-5.19396
-11.0083	-3.47788
-10.0131	-3.46788
-8.99966	-3.45746
-10.5052	-2.59337
-10.0131	-3.46788
-9.49763	-4.32814
-8.51097	0.853171
-8.01047	-0.0123521
-7.49836	-0.857145
-6.51469	4.33544
-5.98826	3.45472
-5.50285	2.58815
-5.49383	7.79381
-5.00383	8.64826
-4.50156	9.53187
-5.51069	6.06349
-5.00033	5.20348
-4.49004	4.33704
-4.50156	9.53187
-3.9963	10.3874
-3.50562	11.2602
-3.50562	11.2602
-3.00784	12.1353
-2.49042	12.9907
-3.51134	9.53064
-2.9982	8.66535
-2.48663	7.78137
-2.9958	10.4007
-2.0071	10.4073
-1.00952	10.3972
-1.99716	12.1106
-0.993039	12.1335
-0.0140452	12.1235
-1.4905	12.9962
-0.993039	12.1335
-0.485785	11.2531
-0.501697	14.7243
-0.0128811	13.8498
0.501395	12.9891
-0.00205754	15.5963
0.994906	15.5985
1.99226	15.5778
0.49941	16.4651
0.994906	15.5985
1.48698	14.7365
0.996829	17.3242
1.99029	17.3281
3.00483	17.3088
1.50939	18.1989
1.99029	17.3281
2.50037	16.4402
2.00799	19.0596
2.99296	19.0583
3.99514	19.056
2.50968	21.6484
2.9925	22.5297
3.49025	23.3779
2.50693	19.9045
2.99296	19.0583
3.48944	18.2008
3.49025	23.3779
4.00085	24.255
4.50336	25.124
3.49146	21.6372
4.00704	20.7778
4.50805	19.9301
4.50336	25.124
5.00592	25.9774
5.49976	26.8389
4.48896	23.3749
5.00245	22.522
5.48586	21.6485
4.99523	24.2515
6.01115	24.2605
7.00909	24.2607
5.4899	25.1121
6.01115	24.2605
6.49133	23.3751
-19.0022	-20.792
-17.9932	-20.7817
-17.0023	-20.7862
-18.007	-19.0414
-17.0125	-19.0396
-15.9881	-19.0525
-15.9896	-15.6028
-14.989	-15.5874
-14.0136	-15.5854
-14.5011	-12.9947
-13.9876	-13.8595
-13.507	-14.7213
-12.4985	-7.80885
-11.9944	-6.93219
-11.5025	-6.07685
-11.5025	-6.07685
-10.9935	-5.19776
-10.501	-4.32495
-10.501	-4.32495
-10.0131	-3.46788
-9.48952	-2.58973
-9.994	-5.19396
-8.98956	-5.1835
-7.99781	-5.20925
-7.49836	-0.857145
-7.00197	-1.72679
-6.49628	-2.5934
-7.0114	-0.00225046
-5.99723	0.00948681
-5.01448	-0.000216841
-5.5146	4.33988
-5.00033	5.20348
-4.50934	6.0658
-4.50934	6.0658
-3.98574	6.94273
-3.49554	7.78442
-3.49554	7.78442
-2.9982	8.66535
-2.48782	9.51423
-2.48663	7.78137
-2.00674	6.92375
-1.48756	6.05008
-1.99088	8.65746
-1.00896	8.65853
-0.00728615	8.65564
0.500137	14.7256
0.994906	15.5985
1.49969	16.4635
1.00279	13.8619
2.01172	13.8493
3.01104	13.8485
1.48698	14.7365
2.01172	13.8493
2.4883	12.9948
1.99226	15.5778
2.98682	15.5762
4.01123	15.5954
3.00483	17.3088
4.0012	17.3304
5.01268	17.3056
3.99514	19.056
4.98687	19.0378
5.99648	19.0602
4.50805	19.9301
4.98687	19.0378
5.5098	18.1828
5.48586	21.6485
6.00371	20.77
6.49416	19.9057
6.49133	23.3751
7.01444	22.5154
7.48808	21.6371
7.00909	24.2607
8.00441	24.2504
9.00397	24.2495
7.99744	25.9838
9.00199	25.9778
9.99671	25.9834
-17.5009	-21.6401
-17.0068	-22.5213
-16.4889	-23.3721
-17.0023	-20.7862
-15.9946	-20.796
-15.0021	-20.7845
-16.5097	-18.1784
-15.9998	-17.3116
-15.5114	-16.4593
-15.5114	-16.4593
-14.989	-15.5874
-14.4879	-14.7075
-15.0057	-17.3337
-14.0031	-17.3087
-13.0093	-17.3127
-14.4879	-14.7075
-13.9876	-13.8595
-13.5099	-12.9801
-14.0136	-15.5854
-12.9978	-15.5794
-11.9984	-15.5969
-13.5099	-12.9801
-13.0006	-12.1264
-12.5081	-11.2517
-13.507	-14.7213
-12.9978	-15.5794
-12.5089	-16.4514
-13.0018	-13.8571
-11.9955	-13.8442
-11.0011	-13.8606
-12.5081	-11.2517
-12.0015	-10.3982
-11.4974	-9.5285
-11.4974	-9.5285
-11.0138	-8.6587
-10.5034	-7.8067
-10.5034	-7.8067
-10.0085	-6.92701
-9.50002	-6.05221
-7.99781	-5.20925
-7.00369	-5.20308
-6.01165	-5.21051
-7.49058	-2.58576
-7.00197	-1.72679
-6.5029	-0.86067
-6.5029	-0.86067
-5.99723	0.00948681
-5.50451	0.874827
-5.01448	-0.000216841
-4.00747	-0.00433273
-3.01101	-0.0148566
-3.99853	1.72995
-3.0033	1.73211
-2.01228	1.74644
-2.01439	5.20205
-1.00116	5.2049
0.00417135	5.20561
-0.50268	9.52538
-0.0123516	10.3958
0.494468	11.2512
0.494468	11.2512
0.993295	12.1178
1.49438	12.9924
1.49438	12.9924
2.01172	13.8493
2.48863	14.7344
2.48863	14.7344
2.98682	15.5762
3.49297	16.4567
4.01123	15.5954
4.98711	15.5947
5.98594	15.5748
5.01268	17.3056
5.99828	17.3273
7.00403	17.3075
5.5098	18.1828
5.99828	17.3273
6.50247	16.4529
6.49416	19.9057
6.99572	19.0409
7.48924	18.1787
7.48808	21.6371
7.98546	20.7862
8.51097	19.9047
8.01262	22.5073
8.98737	22.5143
10.0037	22.5105
8.51237	23.3956
8.98737	22.5143
9.50058	21.6414
9.00397	24.2495
9.98727	24.2489
10.9937	24.2572
9.50903	25.1146
9.98727	24.2489
10.4998	23.3812
10.4913	26.8405
11.0131	25.9726
11.4945	25.1158
-14.5147	-18.2005
-14.0031	-17.3087
-13.4916	-16.4415
-13.0093	-17.3127
-12.008	-17.3122
-10.9877	-17.3328
-11.4987	-13.0001
-11.0031	-12.1212
-10.498	-11.2576
-10.5126	-12.9835
-9.9978	-13.8418
-9.48776	-14.7268
-9.99635	-12.1297
-8.99218	-12.1226
-8.00121	-12.1335
-8.49481	-7.77967
-7.98821	-6.92354
-7.50366	-6.05471
-4.5035	-2.61161
-3.98535	-3.47873
-3.49386	-4.31736
-1.49262	4.32833
-1.00116	5.2049
-0.50412	6.06229
-0.999653	3.4632
0.00494441	3.47022
1.00066	3.47617
0.00417135	5.20561
0.985944	5.19994
2.00404	5.2071
0.988427	6.93891
2.00832	6.92528
3.00271	6.9177
1.4852	7.79038
2.00832	6.92528
2.48852	6.06269
2.50645	11.2518
3.00411	12.1253
3.50009	12.9789
3.98521	12.1263
5.00245	12.1155
5.99018	12.1179
5.50905	16.4574
5.99828	17.3273
6.48999	18.1913
5.51453	14.7208
5.99583	13.8649
6.48699	12.9837
5.98594	15.5748
7.01138	15.5982
8.0008	15.5779
6.50247	16.4529
7.01138	15.5982
7.49051	14.7196
7.00403	17.3075
8.00041	17.3182
9.00263	17.3344
7.48924	18.1787
8.00041	17.3182
8.4915	16.4692
9.51278	23.3939
9.98727	24.2489
10.4939	25.1164
9.50058	21.6414
9.99957	20.7837
10.4966	19.9059
10.0037	22.5105
11.0011	22.529
11.9982	22.5074
10.9937	24.2572
11.9955	24.2593
13.0011	24.2555
11.4945	25.1158
11.9955	24.2593
12.4938	23.378
-15.5135	-23.372
-14.9894	-22.5201
-14.503	-21.6375
-15.0011	-24.234
-14.0066	-24.2619
-13.0115	-24.2536
-14.503	-21.6375
-14.007	-20.7752
-13.514	-19.9219
-13.4939	-21.6545
-12.986	-22.5288
-12.5148	-23.3835
-12.5097	-19.9168
-12	-20.7846
-11.5081	-21.656
-10.9877	-17.3328
-9.9857	-17.3194
-9.00324	-17.3173
-10.5032	-16.4483
-9.9857	-17.3194
-9.49098	-18.1967
-9.48776	-14.7268
-9.00348	-15.6008
-8.5023	-16.4514
-8.48767	-13.0041
-7.98969	-13.8647
-7.50159	-14.7282
-8.00121	-12.1335
-6.99679	-12.1308
-6.01145	-12.1173
-7.48952	-11.2565
-6.99679	-12.1308
-6.50032	-13.0006
-7.00902	-10.3899
-5.99214	-10.3882
-5.00985	-10.392
-3.49386	-4.31736
-2.99099	-5.19959
-2.4876	-6.06754
-2.99598	-3.45433
-2.00649	-3.47816
-1.00865	-3.45009
-2.49396	-0.853464
-2.00917	0.00526325
-1.5027	0.85993
2.00404	5.2071
2.99802	5.19081
4.01007	5.18426
2.48852	6.06269
2.99802	5.19081
3.50549	4.33996
3.00271	6.9177
4.00025	6.91927
4.99286	6.92049
3.49652	9.53735
4.01369	10.3967
4.48928	11.247
3.98999	8.65039
4.99091	8.65335
5.98631	8.6704
4.48928	11.247
5.00245	12.1155
5.50235	12.9771
5.99018	12.1179
6.99418	12.1309
8.00341	12.1099
6.48699	12.9837
6.99418	12.1309
7.49237	11.2657
7.01257	13.8449
8.01443	13.8665
8.99165	13.8556
7.49051	14.7196
8.01443	13.8665
8.4941	12.99
8.4915	16.4692
9.00448	15.5971
9.49022	14.727
9.00263	17.3344
10.0045	17.3155
11.0095	17.3303
9.51304	19.9041
9.99957	20.7837
10.4954	21.6382
10.0068	19.04
10.9918	19.0625
11.9946	19.0578
10.4954	21.6382
11.0011	22.529
11.492	23.3976
13.0011	24.2555
13.988	24.2605
15.0073	24.2596
-12.5112	-21.6478
-12	-20.7846
-11.5117	-19.9333
-12.5148	-23.3835
-11.9932	-24.2391
-11.4899	-25.1292
-11.5117	-19.9333
-10.9859	-19.064
-10.4873	-18.1931
-10.4873	-18.1931
-9.9857	-17.3194
-9.50529	-16.4505
-9.50529	-16.4505
-9.00348	-15.6008
-8.49176	-14.7336
-9.00324	-17.3173
-7.99778	-17.3323
-6.99931	-17.3251
-8.49176	-14.7336
-7.98969	-13.8647
-7.50947	-12.994
-8.5023	-16.4514
-7.99778	-17.3323
-7.49311	-18.18
-7.99903	-15.5753
-7.00813	-15.5792
-6.00305	-15.5853
-7.50947	-12.994
-6.99679	-12.1308
-6.51431	-11.2671
-7.50159	-14.7282
-7.00813	-15.5792
-6.48523	-16.4601
-6.51431	-11.2671
-5.99214	-10.3882
-5.49378	-9.52785
-4.00978	-8.66435
-3.01294	-8.65545
-2.01184	-8.67364
-3.50707	-6.06126
-2.99099	-5.19959
-2.50291	-4.32149
-3.00964	-6.93979
-2.0136	-6.93711
-1.00253	-6.92622
-2.50291	-4.32149
-2.00649	-3.47816
-1.4959	-2.60562
-2.4876	-6.06754
-2.0136	-6.93711
-1.49146	-7.79734
-0.00839604	-1.72121
1.01211	-1.72575
1.9971	-1.72663
0.491277	-0.860982
1.01211	-1.72575
1.50604	-2.58332
0.990452	-0.00127461
1.98557	0.0070525
3.00321	0.00407266
1.99039	1.74694
3.00373	1.73313
3.99423	1.72796
3.50549	4.33996
4.00987	3.47876
4.49896	2.59143
4.01007	5.18426
5.01418	5.19624
6.00738	5.19653
5.98631	8.6704
7.00214	8.65611
8.01122	8.66622
6.50113	9.51353
7.00214	8.65611
7.49312	7.79117
8.51343	14.7124
9.00448	15.5971
9.51122	16.4398
8.99165	13.8556
9.99942	13.868
10.9864	13.8689
9.49022	14.727
9.99942	13.868
10.4875	13.0013
10.5117	16.4592
10.9913	15.5879
11.5125	14.7088
11.5109	19.9126
12.0148	20.7935
12.5132	21.6555
11.9946	19.0578
12.9882	19.0401
14.0067	19.0638
13.0146	20.7774
14.0067	20.7762
14.9943	20.7812
-11.5097	-23.3817
-10.9931	-22.5177
-10.4925	-21.6579
-11.4899	-25.1292
-10.9968	-25.9698
-10.4904	-26.8599
-7.51411	-16.4683
-7.00813	-15.5792
-6.50743	-14.718
-7.49311	-18.18
-7.00535	-19.054
-6.48721	-19.9165
-6.99931	-17.3251
-5.99735	-17.3291
-4.98617	-17.3279
-4.50018	-11.2524
-4.00508	-10.4033
-3.49529	-9.52632
-2.01184	-8.67364
-1.00489	-8.6591
-0.00371253	-8.652
-1.48956	-6.05945
-0.999392	-5.20139
-0.505127	-4.32014
1.9971	-1.72663
3.01364	-1.74442
3.99863	-1.7239
2.50049	-0.879388
3.01364	-1.74442
3.49069	-2.61285
3.00321	0.00407266
3.98512	0.00149307
5.0074	0.00284336
3.99423	1.72796
4.99613	1.73302
6.00714	1.72489
4.49896	2.59143
4.99613	1.73302
5.49631	0.863511
4.99169	3.44945
6.00095	3.46129
6.99908	3.47236
7.49312	7.79117
8.01089	6.94124
8.50214	6.07715
8.01122	8.66622
8.99455	8.66346
9.98696	8.64966
10.9864	13.8689
11.9958	13.8486
13.0129	13.8703
15.5125	21.6401
16.0012	20.781
16.5128	19.9092
-6.48721	-19.9165
-6.00679	-20.7784
-5.51002	-21.6558
-5.99423	-19.0443
-4.98653	-19.0402
-3.98758	-19.059
-4.49688	-14.7278
-4.00866	-13.854
-3.49441	-13.0019
-4.50549	-16.4437
-3.98572	-17.3284
-3.49169	-18.19
-3.49441	-13.0019
-3.00099	-12.1308
-2.4951	-11.2547
-3.4911	-14.7334
-2.9998	-15.5968
-2.50997	-16.446
-2.4951	-11.2547
-1.99681	-10.4046
-1.49868	-9.53408
-1.49868	-9.53408
-1.00489	-8.6591
-0.494169	-7.80851
-0.494169	-7.80851
-0.000752284	-6.9246
0.506552	-6.04781
-0.00371253	-8.652
0.99164	-8.6552
1.99482	-8.66123
0.506552	-6.04781
1.0143	-5.20122
1.49412	-4.32905
0.487445	-7.79316
0.99164	-8.6552
1.49683	-9.53546
3.49069	-2.61285
3.98789	-3.47086
4.50739	-4.34257
3.99863	-1.7239
5.00598	-1.73984
5.99352	-1.72718
4.49254	-0.870188
5.00598	-1.73984
5.48611	-2.60702
5.0074	0.00284336
5.99301	-0.00965359
6.99336	0.00674599
5.50183	2.59994
6.00095	3.46129
6.51021	4.3258
5.49631	0.863511
5.99301	-0.00965359
6.50873	-0.867208
8.50214	6.07715
8.99469	5.18613
9.50873	4.34207
11.0099	10.391
12.0128	10.3865
13.011	10.4041
12.4917	14.7286
12.9873	15.5905
13.5036	16.4463
13.0129	13.8703
13.9891	13.8607
15.0043	13.8683
14.4883	16.4396
14.9965	15.5907
15.4991	14.7078
15.0095	17.3136
16.0124	17.332
16.9966	17.3332
15.5133	19.9147
16.0012	20.781
16.5013	21.6651
17.4943	21.6386
18.0022	20.7923
18.4863	19.9255
-8.50896	-25.1157
-8.01052	-24.2565
-7.50345	-23.3745
-7.50345	-23.3745
-7.0116	-22.5195
-6.48959	-21.6403
-7.48624	-25.1142
-7.00644	-25.9793
-6.48849	-26.8409
-6.98778	-24.253
-6.00039	-24.24
-5.00057	-24.2627
-6.49518	-23.3794
-6.00039	-24.24
-5.48503	-25.1296
-5.51002	-21.6558
-5.0041	-22.5248
-4.49585	-23.3975
-3.98758	-19.059
-3.01032	-19.0616
-2.00375	-19.0512
-3.49169	-18.19
-3.01032	-19.0616
-2.49137	-19.9316
-2.50997	-16.446
-2.0141	-17.3074
-1.48583	-18.1794
-1.99387	-15.6035
-1.01233	-15.5745
-0.0113596	-15.6034
0.997263	-10.3994
2.00439	-10.3857
2.99434	-10.3977
1.50402	-7.79491
2.00379	-6.91763
2.48571	-6.0546
1.49683	-9.53546
2.00439	-10.3857
2.51413	-11.2722
1.99482	-8.66123
3.00841	-8.67119
4.00277	-8.65678
2.48571	-6.0546
3.01464	-5.19083
3.49236	-4.31645
2.48774	-7.78516
3.00841	-8.67119
3.49711	-9.51844
3.98779	-5.18591
5.002	-5.20731
6.00181	-5.19486
4.50739	-4.34257
5.002	-5.20731
5.48689	-6.07262
5.48611	-2.60702
6.00106	-3.47332
6.50944	-4.34357
6.50873	-0.867208
6.99476	-1.7314
7.50883	-2.59888
6.99336	0.00674599
8.00156	0.0148322
8.98628	0.00455109
7.48858	2.59297
8.01239	3.45162
8.50975	4.31805
8.50975	4.31805
8.99469	5.18613
9.50484	6.05659
8.48794	2.5889
8.991	1.73647
9.48771	0.872788
9.50873	4.34207
10.0042	3.45087
10.4869	2.60202
11.4884	7.79966
12.0126	6.92758
12.4929	6.06929
12.5026	11.2637
12.9977	12.1281
13.4872	12.9927
13.011	10.4041
13.9889	10.389
15.0015	10.3992
13.4872	12.9927
13.9891	13.8607
14.5149	14.7304
13.9959	12.1152
14.9956	12.1128
16.0132	12.1254
15.4991	14.7078
16.0051	13.8545
16.5019	12.9959
18.001	19.045
18.9947	19.0562
19.994	19.0389
18.4863	19.9255
18.9947	19.0562
19.5127	18.1855
19.4907	21.6606
19.9896	20.7967
20.5093	19.927
-7.00276	-27.7208
-6.00843	-27.7123
-4.99429	-27.7129
-6.48849	-26.8409
-6.00843	-27.7123
-5.50784	-28.5697
-5.50755	-23.3778
-5.0041	-22.5248
-4.50659	-21.6394
-5.00057	-24.2627
-4.01423	-24.2554
-2.99267	-24.2475
-4.49585	-23.3975
-4.01423	-24.2554
-3.49102	-25.1055
-1.48884	-16.4456
-1.01233	-15.5745
-0.486691	-14.7318
-1.48583	-18.1794
-0.997647	-19.0562
-0.489403	-19.9282
-0.486691	-14.7318
0.0088153	-13.8486
0.51125	-12.9956
0.51125	-12.9956
1.01001	-12.1158
1.50765	-11.2603
1.50765	-11.2603
2.00439	-10.3857
2.49009	-9.52932
2.51413	-11.2722
2.98992	-12.1181
3.50009	-13.0009
3.49711	-9.51844
3.98765	-10.4027
4.50433	-11.2441
4.00277	-8.65678
4.99739	-8.65143
5.99969	-8.66167
5.01264	-6.93824
6	-6.9282
6.98757	-6.92621
6.00181	-5.19486
6.99577	-5.20333
7.99115	-5.19143
7.50883	-2.59888
8.0074	-3.46416
8.51322	-4.32318
9.48771	0.872788
9.99644	0.00492038
10.5106	-0.866112
10.0068	1.74569
11.0017	1.71951
11.9982	1.71808
10.4868	4.32869
11.0032	5.20065
11.4857	6.05926
11.4857	6.05926
12.0126	6.92758
12.4963	7.78395
11.503	4.33156
11.9937	3.47862
12.497	2.59423
12.4963	7.78395
12.9909	8.64915
13.4857	9.51838
12.4929	6.06929
12.9885	5.18991
13.4918	4.3412
13.4857	9.51838
13.9889	10.389
14.4949	11.2465
14.5003	9.51248
14.9973	8.65032
15.4883	7.80609
15.0015	10.3992
15.9931	10.4023
16.9865	10.3931
16.0132	12.1254
17.0014	12.1146
17.9896	12.1192
16.5019	12.9959
17.0014	12.1146
17.5038	11.2597
17.5141	16.4398
18.005	17.3274
18.4976	18.197
18.4976	18.197
18.9947	19.0562
19.5138	19.9159
19.994	19.0389
20.9864	19.0649
22.0069	19.0547
-4.99429	-27.7129
-4.00218	-27.707
-2.9966	-27.716
-3.49102	-25.1055
-3.01454	-25.9781
-2.51375	-26.8419
-1.51103	-19.9058
-0.997647	-19.0562
-0.506446	-18.1844
-0.489403	-19.9282
-0.00655239	-20.7868
0.503959	-21.6518
3.50009	-13.0009
4.0083	-13.8571
4.51287	-14.7154
4	-12.1371
4.9898	-12.1358
5.99268	-12.11
4.50433	-11.2441
4.9898	-12.1358
5.51257	-13.0004
5.49844	-7.79094
6	-6.9282
6.51074	-6.04815
6.51074	-6.04815
6.99577	-5.20333
7.51191	-4.33708
6.98757	-6.92621
8.01439	-6.93014
9.00839	-6.91724
7.51191	-4.33708
8.0074	-3.46416
8.49709	-2.60267
7.99115	-5.19143
9.00913	-5.19664
9.99568	-5.19253
8.49709	-2.60267
8.99066	-1.72027
9.50728	-0.852411
8.51322	-4.32318
9.00913	-5.19664
9.50919	-6.06951
9.50728	-0.852411
9.99644	0.00492038
10.5057	0.856269
10.5106	-0.866112
11.0035	-1.73217
11.509	-2.58989
12.9894	3.45555
13.9964	3.45449
14.994	3.45668
13.4918	4.3412
13.9964	3.45449
14.4985	2.59358
14.5049	7.78794
14.9973	8.65032
15.4953	9.5189
16.9865	10.3931
18.0146	10.3781
19.0071	10.3896
17.4992	12.992
18.0028	13.8636
18.5087	14.7326
17.5038	11.2597
18.0146	10.3781
18.4992	9.51161
18.5087	14.7326
18.9881	15.5966
19.499	16.4632
18.5133	12.983
19	12.136
19.5061	11.2641
20.9876	17.3309
21.9937	17.3143
22.9911	17.3253
-4.49118	-28.5739
-4.00218	-27.707
-3.51364	-26.8615
-3.98672	-29.4452
-2.99299	-29.4373
-1.99378	-29.4429
-2.51375	-26.8419
-1.99159	-27.7058
-1.51442	-28.5652
-1.49054	-23.3903
-0.987343	-22.5268
-0.504173	-21.6479
-1.49619	-25.1056
-1.009	-25.9906
-0.502293	-26.851
-0.504173	-21.6479
-0.00655239	-20.7868
0.511039	-19.9084
0.511039	-19.9084
0.98941	-19.0592
1.48834	-18.1916
0.503959	-21.6518
1.01285	-22.5296
1.48744	-23.3975
3.48815	-14.7312
4.0083	-13.8571
4.49068	-12.9888
4.51287	-14.7154
4.99895	-15.5882
5.48534	-16.4639
5.99268	-12.11
7.00495	-12.1204
8.00593	-12.132
6.50159	-9.53907
6.99483	-8.65653
7.50765	-7.78511
7.50765	-7.78511
8.01439	-6.93014
8.4892	-6.04938
8.4892	-6.04938
9.00913	-5.19664
9.50646	-4.33558
8.49189	-7.78399
8.99325	-8.65256
9.49536	-9.52721
9.00839	-6.91724
9.99143	-6.93487
11.005	-6.94121
9.50646	-4.33558
9.98766	-3.46357
10.5077	-2.59487
9.50919	-6.06951
9.99143	-6.93487
10.4882	-7.79844
11.509	-2.58989
12.0027	-3.47199
12.5018	-4.31795
13.0009	0.0146754
13.9875	-0.00759362
15.0139	0.00062111
14.4859	4.33894
15.0022	5.1928
15.5003	6.0623
17.4866	9.52827
18.0146	10.3781
18.4946	11.2648
18.4946	11.2648
19	12.136
19.4938	12.9958
19.4938	12.9958
19.9889	13.8563
20.5111	14.7171
19.5061	11.2641
19.99	10.4042
20.4911	9.53826
20.5111	14.7171
20.9949	15.5864
21.4892	16.4507
21.0007	13.8693
22.0041	13.8536
23.0059	13.8596
21.4892	16.4507
21.9937	17.3143
22.507	18.1815
22.4938	16.4424
23.0007	15.5773
23.5047	14.735
-2.50123	-28.5825
-1.99159	-27.7058
-1.50493	-26.8481
-1.99378	-29.4429
-1.00347	-29.4343
0.00865396	-29.4312
-1.50493	-26.8481
-1.009	-25.9906
-0.492721	-25.1258
-0.492721	-25.1258
-0.0124439	-24.2548
0.50243	-23.3826
-0.502293	-26.851
0.0143238	-27.6996
0.506172	-28.5835
0.010107	-25.9678
0.994517	-25.975
1.99925	-25.9756
0.50243	-23.3826
1.01285	-22.5296
1.49128	-21.6451
1.00162	-24.2401
2.00769	-24.2387
3.00699	-24.2376
1.49128	-21.6451
2.00205	-20.7952
2.48719	-19.9186
1.48744	-23.3975
2.00769	-24.2387
2.4939	-25.1002
2.48719	-19.9186
2.99713	-19.0638
3.50447	-18.1948
4.50212	-18.1942
4.99093	-19.0393
5.5142	-19.9095
4.99766	-17.3282
5.99237	-17.3236
7.00593	-17.3179
7.51444	-12.9815
7.98546	-13.8582
8.50765	-14.713
8.51488	-9.53902
8.99325	-8.65256
9.51091	-7.79968
9.51091	-7.79968
9.99143	-6.93487
10.4968	-6.06144
9.49536	-9.52721
9.99294	-10.3812
10.5012	-11.2588
10.4968	-6.06144
11.0101	-5.20439
11.5108	-4.32862
10.4882	-7.79844
11.0071	-8.66423
11.5051	-9.53966
11.005	-6.94121
11.9864	-6.91506
13.0127	-6.91431
12.5018	-4.31795
13.0002	-5.20753
13.4966	-6.04949
12.988	-3.45608
14.0015	-3.47844
15.0104	-3.45006
13.5076	-0.85122
13.9875	-0.00759362
14.5013	0.878787
13.9928	-1.7179
15.0102	-1.73733
15.9878	-1.7413
14.5013	0.878787
15.0102	1.74696
15.4862	2.58735
15.0139	0.00062111
15.9924	-0.00497808
17.003	-0.0145218
15.4862	2.58735
16.0073	3.47855
16.4936	4.34122
16.4936	4.34122
17.0039	5.18549
17.4856	6.07382
19.5	9.52362
19.99	10.4042
20.5133	11.2686
20.5133	11.2686
21.001	12.1112
21.4856	12.9916
20.4911	9.53826
20.9944	8.6457
21.5142	7.78826
23.0059	13.8596
23.9914	13.8581
25.0115	13.8501
-0.505652	-28.5692
0.0143238	-27.6996
0.487515	-26.8509
0.487515	-26.8509
0.994517	-25.975
1.49877	-25.1259
1.49877	-25.1259
2.00769	-24.2387
2.51255	-23.3953
2.51255	-23.3953
2.99901	-22.5251
3.49948	-21.6634
2.4939	-25.1002
3.01229	-25.9794
3.49577	-26.8567
3.00699	-24.2376
3.99486	-24.2517
5.00312	-24.2637
5.50337	-18.1865
5.99237	-17.3236
6.50987	-16.4438
5.5142	-19.9095
6.00386	-20.7944
6.48854	-21.6477
5.98717	-19.0482
6.99169	-19.0583
8.0123	-19.0643
6.50987	-16.4438
7.00156	-15.5876
7.51029	-14.7218
9.48786	-11.2695
9.99294	-10.3812
10.4936	-9.52363
9.49447	-12.9764
9.98668	-13.8423
10.5129	-14.7141
10.5012	-11.2588
10.9906	-12.1323
11.4895	-12.9885
11.0041	-10.395
12.0036	-10.378
13.0013	-10.3793
11.5051	-9.53966
12.0036	-10.378
12.5033	-11.2607
13.9899	-5.1953
15.002	-5.18505
16.0016	-5.18865
14.5121	-2.60435
15.0102	-1.73733
15.4941	-0.868659
15.0104	-3.45006
15.9905	-3.45891
16.9995	-3.45962
15.4941	-0.868659
15.9924	-0.00497808
16.4855	0.879381
16.4855	0.879381
17.0137	1.74611
17.5038	2.58996
17.003	-0.0145218
18.0056	-0.0145099
18.9875	-0.00540779
17.5038	2.58996
18.0071	3.46464
18.4899	4.32954
20.0004	5.21013
21.0076	5.18372
21.9964	5.20774
23.0057	10.3788
24.0083	10.3968
25.0142	10.3795
23.9915	12.1376
24.9904	12.1354
26.0025	12.1331
3.49731	-25.1002
3.99486	-24.2517
4.49837	-23.3955
4.49837	-23.3955
5.00201	-22.5135
5.49068	-21.657
5.00312	-24.2637
6.00977	-24.2465
7.00628	-24.2589
5.49068	-21.657
6.00386	-20.7944
6.51115	-19.9206
6.48854	-21.6477
6.99042	-22.5054
7.49236	-23.3976
6.99005	-20.7924
7.98525	-20.783
9.00466	-20.7848
8.49119	-16.4611
9.00065	-15.5775
9.48691	-14.7278
10.5129	-14.7141
10.9998	-15.5924
11.4888	-16.4688
11.4895	-12.9885
12.0074	-13.871
12.492	-14.7105
12.5033	-11.2607
13.0078	-12.1131
13.4971	-12.997
13.0013	-10.3793
14.0009	-10.3814
14.9876	-10.4043
13.5029	-7.78874
14.0087	-6.9429
14.4937	-6.06568
16.0016	-5.18865
17.0037	-5.19892
17.989	-5.20016
16.9995	-3.45962
17.9913	-3.47797
18.9866	-3.46096
18.9875	-0.00540779
20.0092	-0.0080955
21.0059	-0.0112425
21.9964	5.20774
22.9987	5.20254
23.9985	5.18741
22.5103	7.78876
22.9889	8.65975
23.5054	9.52268
25.0142	10.3795
26.0046	10.3912
26.9921	10.3882
25.5126	11.2651
26.0046	10.3912
26.4924	9.52877
3.50598	-28.5804
3.99695	-27.7194
4.49861	-26.8596
4.49861	-26.8596
4.99076	-25.9742
5.51473	-25.1267
7.00628	-24.2589
7.98808	-24.2461
8.99566	-24.2456
7.49236	-23.3976
7.98808	-24.2461
8.50718	-25.1276
9.00466	-20.7848
10.0015	-20.7795
10.9939	-20.7756
9.49555	-18.1835
10.0144	-17.3103
10.5136	-16.4442
10.4929	-18.1861
10.9876	-19.0555
11.5095	-19.9226
11.0143	-17.3092
11.993	-17.3084
12.9861	-17.3196
11.4888	-16.4688
11.993	-17.3084
12.4929	-18.1808
12.492	-14.7105
12.9876	-15.5846
13.5092	-16.4576
13.0021	-13.8609
14.0007	-13.8535
15.0037	-13.8635
13.4971	-12.997
14.0007	-13.8535
14.4896	-14.7126
14.511	-9.53038
15.0061	-8.6564
15.4969	-7.79042
14.5087	-11.2527
15.0048	-12.1141
15.5017	-12.9868
15.4969	-7.79042
16.0012	-6.92531
16.5084	-6.05925
16.5084	-6.05925
17.0037	-5.19892
17.49	-4.34327
16.4922	-7.79226
16.9887	-8.664
17.5089	-9.51837
17.49	-4.34327
17.9913	-3.47797
18.5069	-2.5987
17.989	-5.20016
19.0116	-5.18805
19.9985	-5.1985
19.5019	-2.59359
20.0084	-3.44928
20.5094	-4.34436
20.5024	0.863007
20.9896	1.74396
21.5129	2.6045
21.0059	-0.0112425
22.0075	0.00768624
22.9965	8.37765e-05
21.5129	2.6045
21.9943	3.45896
22.4872	4.33248
22.4872	4.33248
22.9987	5.20254
23.4976	6.0571
22.4965	2.59793
23.0081	1.74351
23.4858	0.861481
23.9985	5.18741
25.009	5.20268
25.993	5.19961
25.5004	7.80507
25.9981	6.91447
26.5145	6.05394
26.4924	9.52877
26.9975	8.65096
27.4861	7.80867
9.49541	-21.6471
10.0015	-20.7795
10.5037	-19.9306
9.49613	-23.3728
9.9875	-24.2522
10.4896	-25.112
10.5037	-19.9306
10.9876	-19.0555
11.5114	-18.1966
10.4994	-21.6381
10.9886	-22.5046
11.503	-23.3917
12.4929	-18.1808
13.014	-19.0494
13.5021	-19.9145
12.9861	-17.3196
14.0025	-17.33
15.0007	-17.3225
13.9963	-15.594
14.9987	-15.602
16.0036	-15.5757
14.4896	-14.7126
14.9987	-15.602
15.5099	-16.449
15.0037	-13.8635
16.0112	-13.8697
17.009	-13.8563
17.5066	-7.78449
18.0075	-6.92522
18.4916	-6.06051
18.4903	-7.79782
19.0095	-8.65295
19.4877	-9.51953
19.9985	-5.1985
20.9868	-5.19964
22.0136	-5.20838
20.4884	-2.58501
20.9983	-1.73201
21.4937	-0.874205
20.5094	-4.34436
20.9868	-5.19964
21.4938	-6.05479
21.4937	-0.874205
22.0075	0.00768624
22.4947	0.851097
21.5025	-2.59509
22.002	-3.45581
22.5129	-4.31813
22	-1.72078
23.0114	-1.72115
23.9936	-1.721
23.4858	0.861481
24.0115	0.00868209
24.4895	-0.85724
24.013	1.74271
24.9858	1.73123
25.9997	1.74345
24.4872	4.32737
25.009	5.20268
25.4993	6.04859
25.4909	4.31686
25.9866	3.46149
26.513	2.60969
10.5045	-23.3812
10.9886	-22.5046
11.5041	-21.6475
11.5041	-21.6475
11.9995	-20.7825
12.4957	-19.9039
11.503	-23.3917
12.0047	-24.2595
12.5097	-25.1109
12.4957	-19.9039
13.014	-19.0494
13.5056	-18.1921
13.5056	-18.1921
14.0025	-17.33
14.5109	-16.4433
15.0007	-17.3225
16.0113	-17.3145
17.0129	-17.3172
15.5099	-16.449
16.0113	-17.3145
16.5028	-18.1962
17.5023	-11.2595
18.0105	-10.398
18.4862	-9.51562
18.4862	-9.51562
19.0095	-8.65295
19.5032	-7.79542
18.9872	-10.3875
20.0041	-10.3872
20.9854	-10.4014
19.4877	-9.51953
20.0041	-10.3872
20.5104	-11.2708
22.0136	-5.20838
23.0032	-5.18744
24.0007	-5.18501
22.5129	-4.31813
23.0032	-5.18744
23.4984	-6.06742
24.4895	-0.85724
24.9938	-1.71872
25.4864	-2.61063
25.5038	0.854679
26.0059	-0.00223451
26.496	-0.864675
25.9997	1.74345
26.9989	1.73989
27.9863	1.72582
26.513	2.60969
26.9989	1.73989
27.5129	0.874789
12.0046	-25.993
12.9955	-25.9783
14.0047	-25.9889
13.0042	-24.2357
14.0017	-24.2559
14.9943	-24.2508
13.9968	-22.5232
14.9997	-22.5029
16.0096	-22.5036
14.5124	-19.9211
15.0107	-19.0489
15.5105	-18.1751
16.014	-19.0527
17.0094	-19.0508
17.989	-19.0487
17.0129	-17.3172
18.0058	-17.3311
19.005	-17.3113
17.4992	-14.7276
18.0102	-13.8479
18.5097	-13.0004
17.5065	-16.4436
18.0058	-17.3311
18.5008	-18.1933
18.5097	-13.0004
18.9963	-12.1254
19.5063	-11.2483
20.5104	-11.2708
21.0057	-12.1343
21.4929	-13.0037
20.9854	-10.4014
21.9959	-10.3817
22.9917	-10.3929
21.4998	-9.5304
21.9959	-10.3817
22.5003	-11.264
21.986	-8.66343
23.0116	-8.65086
24.0092	-8.67191
22.4853	-6.06906
23.0032	-5.18744
23.4909	-4.32905
23.4909	-4.32905
23.9992	-3.46619
24.5088	-2.59893
23.4984	-6.06742
23.9978	-6.92415
24.5104	-7.80727
24.0007	-5.18501
25.0109	-5.20076
25.9928	-5.19363
25.4864	-2.61063
26	-3.4641
26.4982	-4.33302
26.513	0.879973
26.9989	1.73989
27.4942	2.60869
27.4942	2.60869
27.9905	3.46418
28.5016	4.33556
27.5129	0.874789
27.9904	-0.0119074
28.4965	-0.85192
16.0096	-22.5036
17.0058	-22.5171
18.0028	-22.5127
16.4857	-19.9313
17.0094	-19.0508
17.487	-18.1915
17.012	-20.7774
18.0071	-20.7794
19.0025	-20.7839
17.487	-18.1915
18.0058	-17.3311
18.4873	-16.4578
18.4873	-16.4578
18.9883	-15.5815
19.5019	-14.7146
19.005	-17.3113
20.008	-17.3077
20.9881	-17.3293
21.0086	-13.8673
21.9923	-13.8693
22.9894	-13.853
24.0092	-8.67191
25.0066	-8.65488
25.9944	-8.67239
24.5104	-7.80727
25.0066	-8.65488
25.5078	-9.52523
26.4982	-4.33302
26.9973	-5.19616
27.4938	-6.06268
16.4905	-23.3871
17.0058	-22.5171
17.5113	-21.6407
17.5113	-21.6407
18.0071	-20.7794
18.4952	-19.92
18.4952	-19.92
18.993	-19.0592
19.504	-18.188
19.504	-18.188
20.008	-17.3077
20.4893	-16.4469
20.4893	-16.4469
20.9976	-15.5752
21.4856	-14.7199
20.9881	-17.3293
22.0001	-17.3307
23.0052	-17.3065
21.4887	-16.4564
22.0001	-17.3307
22.4879	-18.1788
22.0073	-15.593
22.9858	-15.5866
23.9941	-15.5836
23.5142	-11.2525
24.0073	-10.3899
24.5094	-9.5258
27.5144	-4.33258
28	-3.44991
28.5115	-2.59423
23.5094	-14.7194
24.0011	-13.8563
24.51	-12.9928
26.5041	-9.54126
27.0016	-8.66487
27.5088	-7.78469
27.5088	-7.78469
28.0124	-6.91454
28.4925	-6.072
23.5013	-18.192
24.0043	-17.3176
24.4966	-16.447
26.4936	-12.9967
27.0025	-12.139
27.4943	-11.2475
