-18.7662	5.51905
-18.5668	6.50182
-18.3672	7.48456
-18.7662	5.51905
-18.5998	4.53325
-18.276	3.58752
-18.7662	5.51905
-19.7515	5.34813
-18.7662	5.51898
-18.3672	7.48456
-18.167	8.47006
-17.9667	9.45556
-18.3672	7.48456
-18.5668	6.50178
-18.7662	5.51898
-17.9667	9.45556
-17.7677	10.4356
-17.9667	9.45563
-17.9667	9.45563
-18.1816	8.48498
-17.5072	7.75475
-17.9667	9.45563
-16.9877	9.23684
-15.9986	9.06937
-15.9986	9.06941
-15.5333	9.96185
-15.068	10.8543
-15.9986	9.06941
-14.9981	8.99203
-14.0102	9.16646
-15.068	10.8543
-14.5422	10.0084
-14.0102	9.16646
-20.0763	0.873037
-20.3324	-0.0946488
-20.2388	-1.09073
-20.0763	0.873037
-19.1697	0.448324
-18.4407	-0.237266
-18.9369	1.70129
-18.5355	2.61959
-18.276	3.58752
-18.9369	1.70129
-18.645	0.743202
-18.4407	-0.237266
-18.9369	1.70129
-17.9562	1.88467
-16.9754	2.06792
-18.276	3.58752
-18.4075	4.58205
-18.7662	5.51898
-18.276	3.58752
-17.6728	2.78742
-16.9754	2.06792
-18.7662	5.51898
-19.3655	6.31707
-19.4363	7.3112
-18.7662	5.51898
-17.7809	5.69004
-16.7823	5.63845
-19.4363	7.3112
-18.5006	7.65699
-17.5072	7.75475
-17.5072	7.75475
-16.7643	8.42519
-15.9986	9.06937
-17.5072	7.75475
-16.7809	7.06865
-16.0829	6.35384
-17.5072	7.75475
-16.5089	7.75617
-15.5131	7.82482
-15.9986	9.06937
-15.0002	9.03617
-14.0102	9.16646
-15.9986	9.06937
-15.0023	9.04841
-14.0115	9.15603
-14.0102	9.16646
-14.4627	10.0579
-15.0679	10.8543
-14.0102	9.16646
-13.468	8.3214
-14.0115	9.15603
-14.0102	9.16646
-13.4432	9.99444
-13.0926	10.9351
-15.0679	10.8543
-15.0914	11.8522
-14.7414	12.7875
-15.0679	10.8543
-14.0851	11.014
-13.0926	10.9351
-15.0679	10.8543
-14.123	11.2009
-13.178	11.5474
-14.7414	12.7875
-14.0158	12.0966
-13.178	11.5474
-19.9687	-3.67396
-18.9963	-3.90697
-18.0238	-4.14003
-19.9687	-3.67396
-19.2789	-2.94998
-18.589	-2.22608
-20.2388	-1.09073
-19.3398	-0.663871
-18.4407	-0.237266
-20.2388	-1.09073
-19.4236	-1.67238
-18.589	-2.22608
-18.4407	-0.237266
-18.4534	-1.2362
-18.589	-2.22603
-18.4407	-0.237266
-18.3983	-1.24014
-18.5889	-2.22597
-16.9754	2.06792
-17.4768	2.93186
-17.6979	3.90566
-17.6979	3.90566
-17.4054	4.85917
-16.7823	5.63845
-17.6979	3.90566
-16.7687	3.53033
-15.9949	2.89421
-17.6979	3.90566
-16.9064	3.29877
-15.9948	2.89426
-16.7823	5.63845
-15.9093	5.14948
-15.0363	4.66068
-16.0829	6.35384
-15.4916	5.54927
-15.0363	4.66068
-16.0829	6.35384
-15.0825	6.3413
-14.0851	6.42007
-15.5131	7.82482
-14.7623	8.49045
-14.0115	9.15603
-15.5131	7.82482
-14.7844	7.13737
-14.0851	6.42007
-15.5131	7.82482
-14.5338	7.99624
-13.6107	8.36545
-14.0115	9.15603
-13.0161	9.26345
-12.0949	9.65471
-13.0926	10.9351
-12.1394	10.6494
-12.0949	9.65471
-13.178	11.5474
-12.1785	11.426
-11.1716	11.4222
-10.0775	15.1224
-10.6514	15.9345
-11.2252	16.7467
-10.0775	15.1224
-10.199	14.1347
-10.0354	13.1532
-11.2252	16.7467
-10.6516	15.935
-10.0778	15.1236
-9.93398	17.1082
-10.643	17.8134
-9.93404	17.1081
-9.93398	17.1082
-9.19094	17.7657
-8.31832	18.238
-19.0443	-5.84331
-18.425	-5.05685
-18.0238	-4.14003
-19.0443	-5.84331
-18.8171	-6.81703
-18.2498	-7.63976
-18.0238	-4.14003
-18.2087	-3.1543
-18.589	-2.22608
-18.589	-2.22608
-18.3481	-3.19554
-18.0238	-4.14007
-18.5889	-2.22597
-17.8087	-1.59708
-17.1313	-0.85871
-15.9949	2.89421
-16.4667	2.01256
-15.9948	2.89426
-15.9949	2.89421
-15.9618	1.89142
-16.1877	0.913442
-15.9949	2.89421
-15.0762	2.49959
-14.1149	2.22491
-15.9948	2.89426
-15.5209	3.78036
-15.0363	4.66068
-15.9948	2.89426
-15.0548	2.5596
-14.1149	2.22491
-15.9948	2.89426
-14.9985	2.78936
-14.0171	2.98986
-15.0363	4.66068
-14.5194	5.51809
-14.0851	6.42007
-15.0363	4.66068
-14.6882	3.72644
-14.0171	2.98986
-15.0363	4.66068
-14.0347	4.60966
-13.0379	4.72054
-14.0851	6.42007
-13.8935	7.40396
-13.6107	8.36545
-14.0851	6.42007
-13.4609	5.63214
-13.0379	4.72054
-14.0851	6.42007
-13.1221	6.69048
-12.1885	7.04962
-13.6107	8.36545
-12.892	9.05602
-12.0949	9.65471
-13.6107	8.36545
-13.0485	7.54649
-12.1885	7.04962
-12.0949	9.65471
-11.5596	10.4999
-11.1716	11.4222
-12.0949	9.65471
-11.6588	10.5519
-11.1715	11.4221
-11.1716	11.4222
-10.8161	12.3543
-10.164	13.1088
-11.1448	11.462
-10.5568	12.2858
-10.0354	13.1532
-11.1448	11.462
-10.1465	11.4197
-9.14812	11.3774
-10.0354	13.1532
-9.91076	14.1414
-10.0778	15.1236
-10.0354	13.1532
-9.67261	12.225
-9.14812	11.3774
-10.0354	13.1532
-9.10164	13.5056
-8.20655	13.9472
-10.0778	15.1236
-10.1313	16.125
-9.93404	17.1081
-9.93404	17.1081
-9.21938	17.806
-8.31832	18.238
-9.93404	17.1081
-9.22799	16.4058
-8.34505	15.9455
-18.2498	-7.63976
-18.0203	-6.66718
-17.7909	-5.69462
-18.2498	-7.63976
-17.2694	-7.83695
-18.2498	-7.6398
-18.2498	-7.63976
-18.0203	-6.66722
-17.7908	-5.6947
-17.7909	-5.69462
-18.7319	-5.35645
-17.7908	-5.6947
-17.7909	-5.69462
-16.9462	-5.17118
-16.1014	-4.64806
-18.0238	-4.14007
-18.2527	-3.1651
-18.4817	-2.19011
-18.0238	-4.14007
-17.0665	-4.40866
-16.1014	-4.64806
-18.0238	-4.14007
-17.3085	-3.43415
-16.5932	-2.72823
-18.4817	-2.19011
-17.4863	-2.28039
-16.5932	-2.72823
-17.1313	-0.85871
-16.6595	0.027384
-16.1877	0.913442
-17.1313	-0.85871
-16.7856	0.0796064
-17.1312	-0.858826
-17.1313	-0.85871
-17.9667	-0.309234
-17.1312	-0.858767
-14.1149	2.22491
-13.1176	2.19802
-12.1316	2.34989
-14.0171	2.98986
-13.5277	3.85532
-13.0379	4.72054
-14.0171	2.98986
-13.0534	2.73105
-12.1316	2.34989
-14.0171	2.98986
-13.2183	3.59956
-12.5072	4.30981
-13.0379	4.72054
-13.3396	3.76473
-12.5072	4.30981
-12.1885	7.04962
-12.196	8.04853
-12.2035	9.04744
-12.1885	7.04962
-11.2882	6.63098
-11.0332	5.67143
-12.2035	9.04744
-11.4714	8.36386
-10.7586	7.66017
-12.2035	9.04744
-11.2607	9.37724
-10.29	9.61235
-11.1715	11.4221
-10.7308	10.5172
-10.29	9.61235
-11.1715	11.4221
-10.2034	11.6536
-9.2616	11.3278
-10.164	13.1088
-9.65607	12.2431
-9.14812	11.3774
-10.164	13.1088
-9.71282	12.2183
-9.2616	11.3278
-10.164	13.1088
-9.24232	13.4889
-8.3436	13.057
-8.20655	13.9472
-8.27582	14.9463
-8.34505	15.9455
-8.20655	13.9472
-7.23054	13.7027
-6.36326	13.1937
-8.20655	13.9472
-7.38127	14.5187
-6.58495	15.13
-8.34505	15.9455
-7.37115	15.7394
-6.58495	15.13
-8.69282	16.2734
-8.50548	17.2557
-8.31826	18.238
-8.31826	18.238
-8.13134	19.2207
-7.94455	20.2033
-8.31826	18.238
-7.44452	17.7488
-6.54219	17.3147
-8.31826	18.238
-7.47947	18.7869
-6.62416	19.3096
-7.94455	20.2033
-7.11182	20.7573
-6.2542	21.272
-22.9699	-9.7035
-22.0049	-9.96567
-21.0399	-10.2278
-18.2498	-7.6398
-19.0884	-8.17758
-19.3643	-9.13595
-17.7908	-5.6947
-16.8715	-5.29144
-16.1014	-4.64806
-17.7908	-5.6947
-17.5612	-4.72146
-17.7908	-5.69479
-16.1014	-4.64806
-16.1984	-3.65024
-16.5932	-2.72823
-16.1014	-4.64806
-16.8721	-5.2904
-17.7908	-5.69479
-16.5932	-2.72823
-16.2187	-3.65726
-16.1047	-4.65279
-16.5932	-2.72823
-15.8816	-2.02563
-16.5932	-2.72814
-17.1312	-0.858826
-17.0948	-1.86065
-16.5932	-2.72814
-17.1312	-0.858767
-16.131	-0.880096
-15.1307	-0.901484
-15.1307	-0.901484
-14.1305	-0.924707
-13.1303	-0.947981
-12.1316	2.34989
-12.4359	3.30769
-12.5072	4.30981
-12.1316	2.34989
-11.7657	1.41873
-11.6742	0.422004
-12.5072	4.30981
-11.7888	5.0107
-11.0332	5.67143
-11.0332	5.67143
-10.8278	6.6563
-10.7586	7.66017
-11.0332	5.67143
-10.7078	4.72613
-10.3476	3.79358
-10.7586	7.66017
-10.5768	8.64888
-10.29	9.61235
-10.7586	7.66017
-10.096	6.91148
-9.45971	6.14031
-10.7586	7.66017
-11.4712	8.36176
-12.1837	9.06336
-10.29	9.61235
-9.77633	10.4704
-9.2616	11.3278
-10.29	9.61235
-9.29075	9.68263
-8.28902	9.68262
-9.2616	11.3278
-8.97329	12.2835
-8.3436	13.057
-9.2616	11.3278
-8.26569	11.2537
-7.27899	11.4082
-8.3436	13.057
-7.34722	13.0396
-6.36326	13.1937
-8.3436	13.057
-7.666	12.3266
-7.27891	11.4082
-6.36326	13.1937
-6.24819	14.1873
-6.58495	15.13
-6.36326	13.1937
-6.81724	12.299
-7.27891	11.4082
-6.36326	13.1937
-7.36315	13.1815
-6.36318	13.1936
-6.58495	15.13
-6.28344	14.1841
-6.36318	13.1936
-7.26896	15.4611
-6.82671	16.357
-6.54219	17.3147
-7.26896	15.4611
-6.27756	15.3328
-5.35803	14.9414
-6.54219	17.3147
-6.55495	18.3133
-6.62416	19.3096
-6.54219	17.3147
-5.5898	17.0176
-4.61163	16.8214
-6.54219	17.3147
-5.5488	17.165
-4.54705	17.2365
-6.62416	19.3096
-6.49028	20.3004
-6.2542	21.272
-6.62416	19.3096
-5.73099	19.7611
-4.80086	20.1304
-6.2542	21.272
-5.35139	21.7028
-4.42989	22.0921
-21.9674	-11.8643
-21.1286	-11.3198
-21.9674	-11.8643
-21.9674	-11.8643
-21.0721	-11.4222
-20.1768	-10.9801
-21.0399	-10.2278
-20.202	-9.68199
-19.3643	-9.13595
-21.0399	-10.2278
-20.2021	-9.68192
-19.3642	-9.13602
-19.3643	-9.13595
-18.5318	-8.59276
-18.2499	-7.63981
-19.3643	-9.13595
-19.6409	-10.097
-19.3642	-9.13602
-19.3643	-9.13595
-19.7608	-8.21253
-19.8592	-7.21298
-18.2499	-7.63981
-18.1131	-6.64524
-17.7908	-5.69479
-18.2499	-7.63981
-18.0204	-6.66732
-17.7908	-5.69485
-17.7908	-5.69479
-16.893	-5.26168
-16.1047	-4.65279
-17.7908	-5.69479
-18.0205	-6.66805
-17.7908	-5.6948
-16.1047	-4.65279
-16.3945	-3.70184
-16.5932	-2.72814
-16.5932	-2.72814
-15.677	-2.32688
-14.6863	-2.18391
-16.5932	-2.72814
-15.596	-2.76441
-14.6139	-2.58389
-14.6863	-2.18391
-13.8404	-1.65158
-13.1303	-0.947981
-14.6863	-2.18391
-15.1764	-1.31226
-14.6863	-2.18396
-14.6863	-2.18391
-15.5044	-1.60879
-16.3225	-1.03366
-13.1303	-0.947981
-12.4231	-0.24079
-11.6742	0.422004
-13.1303	-0.947981
-12.173	-1.23608
-11.2156	-1.5242
-11.6742	0.422004
-10.8512	0.980371
-9.97383	0.511441
-11.6742	0.422004
-11.4718	-0.55742
-11.2156	-1.5242
-11.6742	0.422004
-10.8511	0.978558
-9.97376	0.511441
-10.3476	3.79358
-9.35913	3.94579
-8.36192	4.02131
-9.45971	6.14031
-8.47049	5.99553
-7.48297	5.83969
-8.28902	9.68262
-7.784	10.5454
-7.27899	11.4082
-8.28902	9.68262
-7.28715	9.67783
-6.28529	9.6711
-7.27899	11.4082
-6.77395	12.2713
-7.27891	11.4082
-7.27899	11.4082
-6.78216	10.5396
-6.28529	9.6711
-7.27899	11.4082
-6.32529	11.6801
-5.35724	11.4654
-7.27891	11.4082
-6.3105	11.1632
-5.35724	11.4654
-6.36318	13.1936
-5.84811	14.0603
-5.35803	14.9414
-6.36318	13.1936
-5.94609	12.2797
-5.35728	11.4655
-6.36318	13.1936
-5.36373	13.2059
-4.36429	13.2182
-5.35803	14.9414
-4.97371	15.8769
-4.61163	16.8214
-5.35803	14.9414
-4.7633	14.1363
-4.36429	13.2182
-5.35803	14.9414
-4.36743	14.8002
-3.38233	14.9734
-4.54705	17.2365
-3.8678	17.9862
-3.29748	18.8219
-4.80086	20.1304
-4.6154	21.1113
-4.42989	22.0921
-4.80086	20.1304
-4.04918	19.4762
-3.29748	18.8219
-4.80086	20.1304
-3.83132	20.389
-2.91991	20.8083
-4.42989	22.0921
-3.76701	21.3416
-2.91991	20.8083
-21.9674	-11.8643
-21.0314	-11.5044
-20.1768	-10.9801
-21.9674	-11.8643
-22.807	-12.4094
-23.4594	-13.1683
-20.1768	-10.9801
-19.6854	-10.0956
-19.3642	-9.13602
-19.3642	-9.13602
-19.499	-8.14558
-19.8592	-7.21298
-19.8592	-7.21298
-19.5719	-8.16423
-19.3641	-9.13597
-19.8592	-7.21298
-18.8675	-7.32505
-17.9391	-7.69339
-17.7908	-5.69485
-18.7145	-5.3117
-17.7908	-5.6948
-17.7908	-5.69485
-17.9058	-6.6911
-17.9391	-7.69339
-17.7908	-5.6948
-17.3507	-6.59276
-16.9106	-7.49071
-14.6139	-2.58389
-13.6804	-2.93471
-13.7006	-3.93201
-14.6863	-2.18396
-14.1946	-3.05861
-13.7006	-3.93191
-14.6863	-2.18396
-13.6859	-2.17338
-12.6856	-2.19522
-9.97376	0.511441
-9.25672	1.20806
-8.69971	2.03804
-9.97376	0.511441
-9.03414	0.175187
-8.03655	0.151604
-8.69971	2.03804
-8.51471	3.02691
-8.36192	4.02131
-8.69971	2.03804
-8.47931	1.05552
-8.03655	0.151604
-8.36192	4.02131
-7.93582	4.93695
-7.48297	5.83969
-8.36192	4.02131
-8.01689	3.08031
-7.57326	2.18164
-8.36192	4.02131
-7.37084	3.94124
-6.38925	3.78239
-7.48297	5.83969
-7.16583	6.79841
-6.8828	7.76776
-7.48297	5.83969
-6.49657	5.66214
-5.49958	5.55986
-6.8828	7.76776
-6.61809	8.73013
-6.28529	9.6711
-6.28529	9.6711
-5.83329	10.5745
-5.35724	11.4654
-5.35728	11.4655
-4.86032	12.3416
-4.36429	13.2182
-5.35728	11.4655
-4.65901	10.7518
-3.89808	10.1053
-5.35728	11.4655
-4.49106	11.9576
-3.49956	12.0512
-4.36429	13.2182
-3.87278	14.0955
-3.38233	14.9734
-3.38233	14.9734
-2.68702	14.2522
-2.10247	13.4388
-3.38233	14.9734
-2.7464	15.7509
-2.30497	16.6534
-2.30495	16.6534
-1.95019	17.59
-1.59539	18.5266
-3.29748	18.8219
-3.0493	19.8039
-2.91991	20.8083
-2.91991	20.8083
-3.45297	21.6605
-4.10826	22.4231
-2.91991	20.8083
-1.91852	20.9547
-0.943426	21.2263
-2.91991	20.8083
-2.4453	21.6918
-2.17346	22.6573
-4.10826	22.4231
-4.65898	23.2576
-5.15493	24.1258
-4.10826	22.4231
-3.16394	22.7311
-2.17346	22.6573
-4.10826	22.4231
-3.63187	23.3076
-3.15546	24.1921
-5.15493	24.1258
-4.1552	24.159
-3.15546	24.1921
-23.4594	-13.1683
-23.4883	-14.1685
-23.0853	-15.0848
-23.4594	-13.1683
-22.5503	-13.5787
-21.6412	-13.9892
-20.5572	-12.3193
-20.967	-11.4094
-20.8934	-10.4148
-20.5572	-12.3193
-21.1528	-13.1195
-21.6412	-13.9892
-20.5572	-12.3193
-21.5215	-12.0547
-20.5779	-12.3855
-20.8934	-10.4148
-20.1919	-9.7002
-19.3641	-9.13597
-20.8934	-10.4148
-20.6212	-11.382
-20.5779	-12.3855
-20.8934	-10.4148
-19.9606	-10.7594
-19.0279	-11.104
-19.3641	-9.13597
-18.6403	-8.42585
-17.9391	-7.69339
-19.3641	-9.13597
-19.1875	-10.1185
-19.0279	-11.104
-19.3641	-9.13597
-18.4165	-9.45567
-17.4302	-9.62054
-17.9391	-7.69339
-17.7486	-8.67381
-17.4302	-9.62054
-17.9391	-7.69339
-16.9562	-7.47374
-15.9828	-7.21492
-13.7006	-3.93201
-14.2052	-4.79527
-13.7006	-3.93191
-13.7006	-3.93201
-14.1399	-4.83533
-14.6947	-5.67286
-13.7006	-3.93201
-13.3018	-4.85317
-12.6994	-5.65576
-13.7006	-3.93191
-13.1931	-3.06357
-12.6856	-2.19522
-13.7006	-3.93191
-13.2029	-4.79554
-12.6994	-5.65576
-13.7006	-3.93191
-12.7041	-4.02481
-11.7086	-3.92474
-12.6856	-2.19522
-12.1971	-3.05997
-11.7086	-3.92474
-12.6856	-2.19522
-11.683	-2.28638
-10.6822	-2.39594
-12.1814	-1.06803
-11.4318	-1.73199
-10.6822	-2.39594
-12.1814	-1.06803
-11.3038	-0.589558
-10.3176	-0.429547
-9.53255	1.41223
-9.95429	0.50378
-10.3176	-0.429547
-9.53255	1.41223
-8.65099	0.939842
-8.03655	0.151507
-8.03655	0.151604
-7.03785	0.100407
-8.03655	0.151507
-8.03655	0.151604
-7.08097	0.441515
-6.14329	0.785112
-7.57326	2.18164
-6.92426	2.93989
-6.38925	3.78239
-7.57326	2.18164
-6.90016	1.44053
-6.14329	0.785112
-6.38925	3.78239
-6.04441	4.72139
-5.49958	5.55986
-6.38925	3.78239
-5.39535	3.73378
-4.79142	4.52442
-5.49958	5.55986
-4.53798	5.82421
-3.64554	6.26799
-5.49958	5.55986
-5.785	4.60401
-4.79142	4.52442
-5.49958	5.55986
-4.50096	5.67645
-3.5513	6.00621
-3.64554	6.26799
-3.65243	7.26402
-4.10665	8.15184
-4.10665	8.15184
-4.1626	9.1455
-3.89808	10.1053
-4.10665	8.15184
-3.16082	7.831
-2.21499	7.51015
-4.10665	8.15184
-3.16081	7.83105
-2.21497	7.51024
-3.89808	10.1053
-3.78058	11.0951
-3.49956	12.0512
-3.89808	10.1053
-2.94046	9.81257
-1.98284	9.51982
-3.49956	12.0512
-2.90998	12.8546
-2.10247	13.4388
-3.49956	12.0512
-2.5497	11.7494
-1.58494	11.4996
-2.10247	13.4388
-1.83911	12.4704
-1.58494	11.4996
-2.30497	16.6534
-1.9502	17.59
-1.59539	18.5266
-2.30497	16.6534
-3.30449	16.6843
-4.30401	16.7153
-2.30497	16.6534
-1.93538	17.5844
-1.59537	18.5266
-0.943426	21.2263
-1.32451	22.1429
-2.17346	22.6573
-2.17346	22.6573
-3.00606	23.207
-3.15546	24.1921
-2.17346	22.6573
-1.18815	22.5005
-0.213781	22.2859
-3.15546	24.1921
-2.49118	24.9426
-1.63827	25.4699
-1.63827	25.4699
-0.648952	25.6348
0.34037	25.7997
-23.0853	-15.0848
-22.4131	-15.8166
-21.4193	-15.8504
-23.0853	-15.0848
-22.4845	-15.8803
-21.4919	-15.8041
-21.6412	-13.9892
-21.9711	-14.9303
-21.4919	-15.8041
-20.5779	-12.3855
-19.8029	-11.7448
-19.0279	-11.104
-20.5779	-12.3855
-21.2975	-13.1127
-22	-13.8564
-20.5779	-12.3855
-19.6214	-12.7206
-18.6649	-13.0557
-19.0279	-11.104
-18.8638	-12.0831
-18.6649	-13.0557
-17.4302	-9.62054
-16.4429	-9.4604
-15.4929	-9.14746
-15.9828	-7.21492
-15.3387	-6.44388
-14.6947	-5.67286
-15.9828	-7.21492
-15.6771	-8.16582
-15.4929	-9.14746
-15.9828	-7.21492
-14.9921	-7.37556
-14.0621	-7.75315
-12.6994	-5.65576
-12.204	-4.79023
-11.7086	-3.92474
-12.6994	-5.65576
-11.7138	-5.82547
-10.7263	-5.6641
-11.7086	-3.92474
-11.2174	-4.79442
-10.7263	-5.6641
-11.7086	-3.92474
-10.8475	-3.4204
-9.85827	-3.29802
-10.6822	-2.39594
-10.4999	-1.41274
-10.3176	-0.429547
-10.3176	-0.429547
-10.5347	-1.40629
-10.6821	-2.39596
-10.3176	-0.429547
-9.4365	-0.898328
-8.80877	-1.67488
-8.03655	0.151507
-7.0575	0.371816
-6.14329	0.785112
-8.03655	0.151507
-8.56795	-0.699978
-8.80877	-1.67488
-8.03655	0.151507
-8.28514	-0.81957
-8.80871	-1.67491
-6.14329	0.785112
-5.64237	1.65038
-5.39392	2.61918
-6.14329	0.785112
-5.1475	0.915193
-4.15299	1.05475
-5.39392	2.61918
-5.10417	3.57543
-4.79142	4.52442
-5.39392	2.61918
-4.77347	1.83696
-4.15299	1.05475
-4.79142	4.52442
-3.79877	4.60874
-2.95614	4.07924
-4.79142	4.52442
-4.35516	5.41962
-3.55126	6.00614
-3.5513	6.00621
-2.90807	6.78038
-2.21503	7.51007
-2.21499	7.51015
-2.32295	6.51604
-2.21497	7.51024
-2.21497	7.51024
-2.10585	8.51583
-1.98284	9.51982
-2.21497	7.51024
-1.30199	7.10056
-0.302704	7.06026
-1.98284	9.51982
-1.79145	10.5112
-1.58494	11.4996
-1.98284	9.51982
-0.984997	9.44927
-0.100592	8.98324
-1.58494	11.4996
-1.03607	10.6695
-0.179385	10.1626
-1.58494	11.4996
-0.607021	11.7146
0.311478	12.1137
-1.59537	18.5266
-1.2526	19.4711
-0.889784	20.408
-0.889784	20.408
-0.464649	21.3157
-0.213781	22.2859
-0.889784	20.408
-0.621413	21.374
-0.0969745	22.228
-0.213781	22.2859
-0.528971	23.2364
-0.799806	24.2003
-0.213781	22.2859
0.420242	23.0775
1.05427	23.869
-0.799806	24.2003
-0.379754	25.1067
0.340431	25.7997
-0.799806	24.2003
0.185113	24.356
1.05427	23.869
0.340431	25.7997
1.06097	26.4931
0.34037	25.7997
0.340431	25.7997
1.31262	25.5504
2.2848	25.3011
-21.4193	-15.8504
-20.442	-16.0482
-19.499	-16.3723
-21.4193	-15.8504
-20.5848	-16.3955
-19.589	-16.378
-21.4919	-15.8041
-21.746	-14.8302
-22	-13.8564
-21.4919	-15.8041
-20.5768	-16.2111
-19.589	-16.378
-21.4919	-15.8041
-20.7719	-15.1171
-20.0547	-14.4273
-22	-13.8564
-21.0471	-14.2087
-20.0547	-14.4273
-18.5751	-11.4898
-17.7613	-12.0709
-16.9475	-12.6521
-15.4929	-9.14746
-14.8283	-8.39814
-14.0621	-7.75315
-15.4929	-9.14746
-15.5206	-10.1467
-15.6239	-11.1411
-14.0621	-7.75315
-13.1162	-7.41445
-12.1726	-7.06955
-14.0621	-7.75315
-13.2599	-8.34911
-12.5457	-9.04829
-12.1726	-7.06955
-11.4199	-6.39729
-10.7263	-5.6641
-12.1726	-7.06955
-12.3592	-8.05892
-12.5457	-9.04829
-9.85827	-3.29802
-10.1157	-4.26355
-10.3432	-5.23647
-10.6821	-2.39596
-9.74544	-2.0354
-8.80877	-1.67488
-10.6821	-2.39596
-9.89526	-3.02249
-9.10841	-3.64901
-8.80877	-1.67488
-8.97971	-2.65873
-9.10841	-3.64901
-8.80877	-1.67488
-8.18013	-2.45262
-8.80876	-1.67495
-8.80871	-1.67491
-8.5485	-0.709381
-8.80876	-1.67495
-4.15299	1.05475
-3.22534	1.43734
-2.49909	2.1292
-2.95614	4.07924
-3.25371	5.04269
-3.55126	6.00614
-2.95614	4.07924
-2.6378	3.12539
-2.49909	2.1292
-2.95614	4.07924
-2.00535	3.77502
-1.05456	3.47079
-3.55126	6.00614
-2.55555	6.0406
-1.6667	5.58918
-2.21503	7.51007
-1.3035	7.09375
-0.302704	7.06026
-2.21503	7.51007
-1.9403	6.54978
-1.6667	5.58918
-2.21503	7.51007
-1.21835	7.45877
-0.302646	7.0602
-0.302704	7.06026
0.0513876	7.99465
-0.100592	8.98324
-0.302704	7.06026
0.350452	7.81748
-0.302646	7.0602
-0.302704	7.06026
-0.986165	6.33032
-0.302585	7.06024
-0.100592	8.98324
0.0477103	7.99598
-0.302585	7.06024
-0.179385	10.1626
0.0660285	11.1381
0.311478	12.1137
-0.179385	10.1626
0.738187	9.77353
1.4537	10.4655
0.311478	12.1137
0.88258	11.2896
1.4537	10.4655
0.311488	12.1138
0.493625	13.1065
0.855445	14.0484
-1.3689	20.6846
-0.73292	21.4563
-0.0969745	22.228
-0.0969745	22.228
0.542268	23.004
1.05427	23.869
-0.0969745	22.228
0.87691	22.4352
1.71465	21.8947
1.05427	23.869
1.04302	24.9253
1	25.9808
1.05427	23.869
1.40927	22.8902
1.71465	21.8947
2.2848	25.3011
3.19842	24.8858
4.03188	24.3271
5.03938	25.8303
4.5643	26.7102
5.03938	25.8303
5.03938	25.8303
5.54961	26.6903
6.05984	27.5504
-19.499	-16.3723
-19.4251	-17.367
-19.589	-16.378
-19.499	-16.3723
-18.6446	-16.9105
-17.7902	-17.4487
-19.589	-16.378
-19.8112	-15.4001
-20.0547	-14.4273
-19.589	-16.378
-18.7657	-15.8114
-18.1448	-15.0279
-20.0547	-14.4273
-20.2975	-13.4572
-20.5403	-12.4872
-20.0547	-14.4273
-19.0951	-14.7126
-18.1448	-15.0279
-20.0547	-14.4273
-19.0496	-14.3421
-18.0432	-14.4139
-16.9475	-12.6521
-16.2601	-11.919
-15.6239	-11.1411
-16.9475	-12.6521
-15.9559	-12.7475
-14.9644	-12.8429
-15.6239	-11.1411
-15.1794	-10.2487
-14.4766	-9.54226
-15.6239	-11.1411
-15.6608	-12.134
-14.9644	-12.8429
-15.6239	-11.1411
-14.6208	-11.247
-13.6167	-11.3441
-14.4766	-9.54226
-13.49	-9.37694
-12.5457	-9.04829
-14.4766	-9.54226
-14.0598	-10.4494
-13.6167	-11.3441
-14.4766	-9.54226
-13.4945	-9.71349
-12.5	-9.64777
-12.5457	-9.04829
-12.4842	-8.04815
-12.7782	-7.08954
-12.7782	-7.08954
-11.8042	-7.31274
-10.979	-7.87535
-12.7782	-7.08954
-11.8171	-7.35932
-10.8659	-7.66223
-10.7262	-5.66401
-10.7961	-6.66312
-10.8659	-7.66223
-10.7262	-5.66401
-9.82609	-6.09381
-9.10611	-6.78379
-10.3432	-5.23647
-9.68634	-4.47338
-9.10841	-3.64901
-10.3432	-5.23647
-9.64136	-5.9436
-9.10611	-6.78379
-10.3432	-5.23647
-9.34255	-5.27951
-8.40366	-4.92857
-9.10841	-3.64901
-8.88062	-2.67387
-8.80876	-1.67495
-8.80876	-1.67495
-9.0704	-2.64516
-9.10831	-3.649
-4.18542	3.20451
-3.34225	2.66686
-2.49909	2.1292
-2.49909	2.1292
-2.36152	1.1387
-2.22408	0.148171
-2.49909	2.1292
-2.59468	3.1246
-2.49902	2.12915
-1.05456	3.47079
-1.89496	2.92681
-2.49902	2.12915
-1.6667	5.58918
-0.984686	6.3247
-0.302646	7.0602
-1.6667	5.58918
-1.39379	4.62349
-1.13084	3.65504
-1.6667	5.58918
-0.764146	5.17558
0.227074	5.11895
-0.302646	7.0602
-0.114498	6.06878
0.227074	5.11895
-0.302646	7.0602
0.672281	6.86473
1.57254	6.44318
-0.302585	7.06024
0.446019	7.72363
1.19465	8.38699
-0.302585	7.06024
0.384126	7.79368
1.19469	8.38702
1.19465	8.38699
0.750829	9.28311
1.19469	8.38702
1.4537	10.4655
1.73875	11.4189
1.95849	12.3896
0.855445	14.0484
1.39571	13.2115
1.95849	12.3896
0.855445	14.0484
1.42579	14.8817
1.92012	15.7621
0.01943	18.6914
0.912296	19.1445
1.63165	19.8403
0.01943	18.6914
0.894435	18.2107
1.81062	17.8142
1.63165	19.8403
1.70241	20.8663
1.71465	21.8947
1.63165	19.8403
1.69793	18.8252
1.81062	17.8142
1.71465	21.8947
1.85428	22.8781
2.84844	22.8165
1.71465	21.8947
2.61021	21.4211
3.51327	20.962
2.84844	22.8165
3.65366	23.404
4.03188	24.3271
2.84844	22.8165
3.05578	21.8444
3.51327	20.962
2.84844	22.8165
3.83737	22.6917
4.81335	22.4892
4.03188	24.3271
4.49987	23.4411
4.81335	22.4892
4.03188	24.3271
5.02548	24.2071
6.01909	24.0872
5.03938	25.8303
5.54961	26.6903
6.05984	27.5504
5.03938	25.8303
5.51442	24.9504
6.01909	24.0872
5.03938	25.8303
6.03946	25.8185
7.03954	25.8068
6.05984	27.5504
6.54969	26.6786
7.03954	25.8068
-17.7902	-17.4487
-18.1108	-18.3964
-18.4314	-19.3441
-18.0432	-14.4139
-17.4449	-13.6126
-16.8467	-12.8113
-18.0432	-14.4139
-17.3338	-15.1187
-16.6244	-15.8236
-18.0432	-14.4139
-17.0402	-14.5236
-16.0381	-14.6406
-16.8467	-12.8113
-16.4424	-13.7259
-16.0381	-14.6406
-14.9644	-12.8429
-14.279	-12.1038
-13.6167	-11.3441
-13.6167	-11.3441
-13.0496	-10.5017
-12.5	-9.64777
-13.6167	-11.3441
-13.1281	-12.2263
-12.8453	-13.1939
-13.6167	-11.3441
-12.6185	-11.4032
-11.6194	-11.4437
-12.5	-9.64777
-12.0597	-10.5457
-11.6194	-11.4437
-12.5	-9.64777
-11.5637	-9.30972
-10.7256	-9.84407
-10.979	-7.87535
-10.6905	-8.83884
-10.7256	-9.84407
-10.979	-7.87535
-10.8526	-8.85977
-10.7256	-9.8441
-10.8659	-7.66223
-9.91139	-7.37215
-9.10611	-6.78379
-10.8659	-7.66223
-9.93096	-8.01645
-9.1483	-8.63811
-9.10611	-6.78379
-8.64115	-5.89936
-8.40366	-4.92857
-9.10611	-6.78379
-8.7688	-7.71892
-9.1483	-8.63811
-9.10611	-6.78379
-8.72929	-7.71064
-8.16358	-6.89131
-8.40366	-4.92857
-8.14709	-5.89336
-8.16358	-6.89131
-9.10831	-3.649
-8.68123	-2.74322
-8.25409	-1.83747
-9.10831	-3.649
-8.40687	-4.37359
-7.59207	-4.96828
-8.25409	-1.83747
-7.25408	-1.80188
-6.29614	-2.0896
-2.22408	0.148171
-2.36157	1.13866
-2.49902	2.12915
-2.49902	2.12915
-2.28842	1.14407
-2.0066	0.176772
-2.49902	2.12915
-1.6596	1.59147
-0.667629	1.70047
-1.13084	3.65504
-0.501558	4.43312
0.227074	5.11895
-1.13084	3.65504
-0.894846	2.6788
-0.667629	1.70047
0.227074	5.11895
1.11991	5.55826
1.57254	6.44318
0.227074	5.11895
0.478061	4.15051
0.686898	3.17211
1.57254	6.44318
1.45073	7.42799
1.19469	8.38702
1.57254	6.44318
2.17787	5.65702
2.04136	4.67392
1.57254	6.44318
2.2859	5.74478
2.96432	6.47242
1.19469	8.38702
1.51111	9.33482
2.09697	10.1447
1.19469	8.38702
2.19619	8.38377
3.1938	8.46927
2.09697	10.1447
2.64539	9.30697
3.1938	8.46927
1.95849	12.3896
2.95273	12.4075
3.93345	12.2469
1.95849	12.3896
2.57951	13.165
3.03319	14.0484
1.92012	15.7621
1.86537	16.7881
1.81062	17.8142
1.92012	15.7621
2.47873	14.9066
3.03319	14.0484
1.92012	15.7621
2.0202	16.7552
2.68935	16.0148
1.81062	17.8142
2.21322	16.8966
2.68935	16.0148
1.81062	17.8142
2.77431	17.5576
3.76968	17.4959
2.66274	19.1582
3.03766	20.0839
3.51327	20.962
2.66274	19.1582
3.23993	18.3429
3.76968	17.4959
2.66274	19.1582
3.66214	19.2201
4.66153	19.2819
3.51327	20.962
4.14564	21.7406
4.81335	22.4892
3.51327	20.962
4.08144	20.1179
4.66153	19.2819
4.81335	22.4892
5.43733	23.2723
6.01909	24.0872
4.81335	22.4892
5.17338	21.5574
5.59725	20.6528
4.81335	22.4892
5.76873	22.1965
6.76407	22.2772
6.01909	24.0872
6.54393	24.9383
7.03954	25.8068
6.01909	24.0872
6.58083	23.2597
6.76407	22.2772
-18.4314	-19.3441
-17.4637	-19.596
-16.4736	-19.7363
-17.7901	-17.4487
-17.2073	-16.6362
-16.6244	-15.8236
-17.7901	-17.4487
-16.8993	-17.9241
-15.9783	-18.3376
-16.0381	-14.6406
-16.9986	-14.3625
-16.0381	-14.6406
-16.0381	-14.6406
-15.0352	-14.7511
-14.029	-14.8263
-12.8453	-13.1939
-13.6895	-13.7299
-12.8452	-13.194
-12.8453	-13.1939
-12.4042	-12.2987
-11.963	-11.4035
-10.7256	-9.84407
-11.5742	-10.3731
-10.7256	-9.8441
-10.7256	-9.84407
-11.2589	-10.6914
-11.9629	-11.4035
-10.7256	-9.84407
-10.2909	-10.7465
-10.0593	-11.7212
-10.7256	-9.8441
-9.87923	-9.31649
-9.1483	-8.63811
-9.1483	-8.63811
-8.60258	-7.7948
-8.16358	-6.89131
-9.1483	-8.63811
-8.81055	-9.57932
-9.14823	-8.63803
-8.16358	-6.89131
-7.85456	-5.93672
-7.59207	-4.96828
-8.16358	-6.89131
-8.59884	-7.79678
-9.14823	-8.63803
-8.16358	-6.89131
-7.83533	-5.94249
-7.59209	-4.96836
-6.29614	-2.0896
-5.79033	-2.94834
-5.87634	-3.94211
-6.29614	-2.0896
-5.3453	-2.40872
-4.36093	-2.60045
-2.0066	0.176772
-1.3382	0.939582
-0.667629	1.70047
-2.0066	0.176772
-2.21669	-0.819346
-2.49627	-1.7983
-0.667629	1.70047
0.00565164	2.43996
0.686898	3.17211
-0.667629	1.70047
-0.441578	0.72636
-0.215583	-0.247769
0.686898	3.17211
1.37999	3.90873
2.04136	4.67392
0.686898	3.17211
1.67371	3.01042
2.66051	2.84872
2.04136	4.67392
2.52276	5.56293
2.96432	6.47242
2.04136	4.67392
2.1041	3.67737
2.66051	2.84872
2.04136	4.67392
2.45937	5.58801
2.89703	6.49286
2.96432	6.47242
3.14805	7.4628
3.19381	8.46918
3.1938	8.46927
3.7415	7.63254
3.19381	8.46918
3.1938	8.46927
3.72337	9.32404
4.04229	10.278
3.93345	12.2469
3.4593	13.1356
3.03319	14.0484
3.93345	12.2469
4.16789	11.2727
4.04229	10.278
3.93345	12.2469
4.22024	11.2889
4.01762	12.2681
3.03319	14.0484
2.80738	15.0221
2.68935	16.0148
3.03319	14.0484
3.55328	13.1737
4.01762	12.2681
3.03319	14.0484
2.99376	15.0448
3.4538	14.1557
2.68935	16.0148
3.08431	15.0905
3.4538	14.1557
2.68935	16.0148
3.58894	15.5887
4.58087	15.6763
3.76968	17.4959
4.2156	18.3889
4.66153	19.2819
3.76968	17.4959
4.21211	16.6025
4.58087	15.6763
3.76968	17.4959
4.76778	17.5422
5.76656	17.5695
4.66153	19.2819
5.22495	18.4327
5.76656	17.5695
5.59725	20.6528
6.18065	21.465
6.76407	22.2772
5.59725	20.6528
6.08333	19.7801
6.62115	18.9382
6.76407	22.2772
6.03288	21.5955
5.32587	20.889
6.76407	22.2772
7.39166	23.0558
6.76412	22.2772
5.11956	22.9814
5.24079	21.9887
5.36202	20.9961
-17.8738	-22.4127
-16.9422	-22.0492
-16.0106	-21.6857
-16.4736	-19.7363
-16.2421	-20.711
-16.0106	-21.6857
-16.4736	-19.7363
-15.4778	-19.6498
-14.4797	-19.6993
-15.9783	-18.3376
-15.4827	-17.465
-14.9937	-16.5888
-15.9783	-18.3376
-15.229	-19.0185
-14.4797	-19.6993
-15.9783	-18.3376
-14.9869	-18.4471
-13.9963	-18.329
-14.9937	-16.5888
-14.5232	-15.7011
-14.029	-14.8263
-14.9937	-16.5888
-14.495	-17.4589
-13.9963	-18.329
-14.9937	-16.5888
-14.0192	-16.371
-13.0425	-16.5762
-14.029	-14.8263
-13.4418	-14.0067
-12.8452	-13.194
-14.029	-14.8263
-13.5358	-15.7012
-13.0425	-16.5762
-14.029	-14.8263
-13.0395	-14.756
-12.0521	-14.8506
-12.8452	-13.194
-12.3004	-12.3497
-11.963	-11.4035
-12.8452	-13.194
-12.0988	-13.8537
-12.0521	-14.8506
-12.8452	-13.194
-11.8887	-13.5247
-10.9137	-13.7959
-11.963	-11.4035
-12.3516	-10.4821
-11.9629	-11.4035
-11.9629	-11.4035
-11.0544	-11.8203
-10.0593	-11.7212
-11.9629	-11.4035
-11.2074	-10.7467
-10.4519	-10.0899
-10.0593	-11.7212
-9.14142	-11.3268
-8.58362	-10.4984
-8.58362	-10.4984
-8.65067	-9.50319
-9.14823	-8.63803
-8.58362	-10.4984
-7.59721	-10.3373
-6.6108	-10.1763
-8.58362	-10.4984
-8.22719	-9.56248
-7.87072	-8.62655
-9.14823	-8.63803
-8.93878	-7.65794
-8.53532	-6.74028
-7.59209	-4.96836
-6.7147	-4.48784
-5.87634	-3.94211
-7.59209	-4.96836
-8.06372	-5.85431
-8.53532	-6.74028
-5.87634	-3.94211
-5.12653	-3.26234
-4.36093	-2.60045
-5.87634	-3.94211
-5.96289	-4.93836
-6.04957	-5.93459
-4.36093	-2.60045
-3.43802	-2.1775
-2.49627	-1.7983
-4.36093	-2.60045
-3.37919	-2.42512
-2.3826	-2.44959
-2.49627	-1.7983
-1.49001	-1.83592
-0.483757	-1.87352
6.58964	2.40484
5.5907	2.45088
4.59176	2.49695
6.58964	2.40484
5.59071	2.45094
4.59177	2.4969
2.66051	2.84872
3.59309	2.49255
4.59177	2.4969
2.89703	6.49286
2.98981	7.4894
3.19381	8.46918
2.89703	6.49286
3.39807	7.36349
3.91873	8.22254
3.19381	8.46918
3.63376	9.36625
4.04229	10.278
4.04229	10.278
4.14858	11.2745
4.01762	12.2681
4.01762	12.2681
3.60362	13.1727
3.4538	14.1557
4.01762	12.2681
4.10658	11.2634
4.10652	10.2546
4.01762	12.2681
3.81497	13.2474
4.01771	12.2682
3.4538	14.1557
3.76862	15.0999
4.58087	15.6763
3.4538	14.1557
4.40824	13.8687
5.39002	14.045
4.58087	15.6763
5.56762	15.7809
6.55643	15.6981
5.76656	17.5695
6.16453	16.6351
6.55643	15.6981
5.76656	17.5695
6.76413	17.4543
7.75536	17.2934
6.62115	18.9382
7.18805	18.1156
7.75536	17.2934
5.32587	20.889
6.04499	21.5831
6.76412	22.2772
5.32587	20.889
6.26078	20.5392
7.23889	20.3376
5.32587	20.889
6.25887	20.5316
7.23888	20.3376
6.76412	22.2772
6.94813	21.2943
7.23888	20.3376
6.76412	22.2772
6.89723	21.2821
7.23885	20.3377
5.36202	20.9961
6.27982	20.6081
7.23885	20.3377
5.36202	20.9961
5.48321	20.0035
5.36208	20.9961
3.42925	21.5101
4.39567	21.2531
5.36208	20.9961
-16.0106	-21.6857
-15.7791	-22.6605
-15.5477	-23.6352
-14.4797	-19.6993
-13.6169	-20.2264
-12.81	-20.8356
-13.9963	-18.329
-13.5227	-17.4508
-13.0425	-16.5762
-13.0425	-16.5762
-12.5542	-15.7094
-12.0521	-14.8506
-13.0425	-16.5762
-12.4258	-17.3539
-11.5989	-16.8041
-12.0521	-14.8506
-11.8524	-15.8336
-11.5989	-16.8041
-12.0521	-14.8506
-11.0823	-15.08
-10.1476	-15.4256
-10.9137	-13.7959
-10.3897	-12.9362
-9.98403	-12.0149
-10.9137	-13.7959
-9.91256	-13.7456
-8.92462	-13.5755
-9.98403	-12.0149
-10.0879	-11.0209
-10.4519	-10.0899
-9.98403	-12.0149
-9.19436	-12.6189
-8.92462	-13.5755
-9.98403	-12.0149
-8.97791	-11.9526
-7.97047	-11.9856
-6.6108	-10.1763
-7.28483	-9.43723
-7.87072	-8.62655
-7.87072	-8.62655
-8.25077	-7.70027
-8.53532	-6.74028
-8.53532	-6.74028
-8.1332	-5.8247
-7.7312	-4.90906
-1.42597	-3.37409
-1.94211	-4.23059
-2.45827	-5.08708
-2.3826	-2.44959
-1.4344	-2.15752
-0.483757	-1.87352
-2.3826	-2.44959
-1.59767	-3.08484
-0.90461	-3.81945
-0.483757	-1.87352
-0.694238	-2.84648
-0.90461	-3.81945
-0.483757	-1.87352
0.515542	-1.91078
-0.483773	-1.8736
4.59176	2.49695
5.04214	1.60409
4.59177	2.4969
4.59176	2.49695
4.43203	3.4855
4.2724	4.47407
4.59177	2.4969
4.14014	3.39191
3.6885	4.28691
4.59177	2.4969
3.59294	2.54248
2.78979	3.13602
3.6885	4.28691
3.74708	5.28737
4.12484	6.21505
3.91873	8.22254
4.0277	7.2194
4.12484	6.21505
3.91873	8.22264
4.02054	9.23789
4.10652	10.2546
3.91873	8.22264
4.78688	8.71895
3.91877	8.22259
3.91873	8.22264
4.49008	9.03377
5.16225	9.76355
4.10652	10.2546
4.07637	11.262
4.01771	12.2682
4.10652	10.2546
3.22705	9.77594
4.0963	10.2677
4.01771	12.2682
4.057	11.2679
4.0963	10.2677
5.39002	14.045
5.97151	14.8728
6.55643	15.6981
5.39002	14.045
4.87561	13.1767
4.54302	12.2242
5.39002	14.045
6.38581	14.0499
7.36544	13.8708
6.55643	15.6981
7.15014	16.5001
7.75536	17.2934
6.55643	15.6981
7.05019	14.8238
7.36544	13.8708
6.55643	15.6981
7.55361	15.5928
8.54991	15.4794
7.75536	17.2934
8.29635	16.4491
8.54991	15.4794
7.23889	20.3376
7.83866	19.5339
8.22831	18.6096
7.23888	20.3376
8.18249	20.0067
7.23885	20.3377
7.23888	20.3376
7.73006	19.4673
8.23512	18.605
7.23888	20.3376
8.23183	20.4445
9.21575	20.2767
7.23885	20.3377
6.30047	20.6669
5.36208	20.9961
7.23885	20.3377
8.22397	20.2002
9.21575	20.2767
7.23885	20.3377
7.50962	19.375
7.23894	20.3377
5.36208	20.9961
6.32609	20.7397
7.23894	20.3377
-15.5477	-23.6352
-14.7386	-23.0491
-13.96	-22.4232
-15.5477	-23.6352
-14.6519	-24.083
-13.7099	-24.4227
-13.96	-22.4232
-13.2415	-21.7332
-12.81	-20.8356
-13.96	-22.4232
-13.8349	-23.4229
-13.7099	-24.4227
-13.96	-22.4232
-12.9732	-22.539
-11.9864	-22.6549
-12.81	-20.8356
-12.6114	-19.8551
-12.5278	-18.8581
-12.81	-20.8356
-12.3126	-21.7066
-11.9864	-22.6549
-12.5278	-18.8581
-12.2978	-19.8307
-12	-20.7846
-11.5989	-16.8041
-10.8733	-16.1149
-10.1476	-15.4256
-11.5989	-16.8041
-10.6322	-17.0717
-9.68074	-17.39
-10.1476	-15.4256
-9.91417	-16.4078
-9.68074	-17.39
-8.92462	-13.5755
-8.84225	-14.5657
-8.87238	-15.559
-7.97047	-11.9856
-7.63995	-12.9226
-7.76921	-13.9076
-7.97047	-11.9856
-7.05127	-12.4043
-6.10769	-12.7644
-6.7293	-10.8765
-7.09391	-9.94531
-7.45853	-9.01415
-6.7293	-10.8765
-6.51133	-11.8511
-6.10769	-12.7644
-6.7293	-10.8765
-5.77097	-11.1667
-4.77391	-11.257
-2.45827	-5.08708
-2.97582	-5.94577
-3.33092	-6.88319
-2.45827	-5.08708
-3.45499	-5.16777
-2.45823	-5.08704
-1.32802	-5.77412
-1.11628	-4.79679
-0.90461	-3.81945
-0.90461	-3.81945
-0.69412	-2.84654
-0.483773	-1.8736
4.2724	4.47407
3.53108	3.80505
2.78979	3.13602
4.2724	4.47407
5.2285	4.18565
6.1846	3.89725
4.2724	4.47407
4.11317	5.46131
3.95403	6.44857
2.78979	3.13602
3.38464	3.93946
4.33881	4.24101
4.12484	6.21505
4.16987	5.22129
4.33881	4.24101
4.12484	6.21505
5.09419	6.45869
5.90719	5.87676
3.91877	8.22259
4.64748	8.90692
5.16225	9.76355
3.91877	8.22259
4.91261	8.08184
5.89717	7.88654
5.16225	9.76355
4.28201	9.29045
4.0963	10.2677
5.16225	9.76355
5.52971	8.82504
5.89717	7.88654
4.0963	10.2677
4.2668	11.258
4.54302	12.2242
4.0963	10.2677
4.96347	10.7521
5.95574	10.7954
4.54302	12.2242
5.19639	11.4576
5.95574	10.7954
4.54302	12.2242
5.53884	12.1196
6.53766	12.0495
7.36544	13.8708
7.95767	14.6751
8.54991	15.4794
7.36544	13.8708
6.92158	12.9736
6.53766	12.0495
7.36544	13.8708
8.34915	13.6909
7.36549	13.8708
8.54991	15.4794
7.94514	14.6843
7.36549	13.8708
8.54991	15.4794
9.54353	15.3664
8.54997	15.4794
8.22831	18.6096
7.53184	17.893
8.23512	18.605
8.22831	18.6096
8.40081	17.6208
8.77056	16.6879
8.23512	18.605
8.9395	19.3159
9.21575	20.2767
8.23512	18.605
8.56876	17.6649
8.77056	16.6879
9.21575	20.2767
8.23297	20.4786
7.23894	20.3377
9.21575	20.2767
9.76418	19.4449
8.8232	19.1066
7.23894	20.3377
8.05271	19.75
8.8232	19.1066
7.23894	20.3377
7.03905	21.3176
6.8746	22.3041
5.36204	20.9961
6.11832	21.6501
6.8746	22.3041
-15	-25.9808
-14.3549	-25.2017
-13.7099	-24.4227
-15	-25.9808
-14	-25.9858
-13	-25.9908
-13.7099	-24.4227
-12.7027	-24.4884
-11.6934	-24.4905
-11.9864	-22.6549
-12.3313	-21.722
-12	-20.7846
-11.9864	-22.6549
-12.1913	-23.63
-11.6934	-24.4905
-12	-20.7846
-11.429	-19.9301
-10.8363	-19.0904
-12	-20.7846
-11.5804	-21.6935
-11.1099	-22.5772
-12	-20.7846
-11.0028	-20.8476
-10.0057	-20.9107
-10.8363	-19.0904
-10.2511	-18.2453
-9.68074	-17.39
-10.8363	-19.0904
-10.421	-20.0005
-10.0057	-20.9107
-9.68074	-17.39
-9.26168	-16.4811
-8.87238	-15.559
-9.68074	-17.39
-9.44957	-18.363
-9.21841	-19.3359
-9.68074	-17.39
-8.71327	-17.0595
-7.76926	-16.6667
-8.87238	-15.559
-8.40897	-14.6744
-7.76921	-13.9076
-8.87238	-15.559
-8.75691	-16.545
-7.76926	-16.6667
-8.87238	-15.559
-7.93668	-15.1937
-7.02378	-14.7747
-7.76921	-13.9076
-6.94158	-13.3315
-6.10769	-12.7644
-7.76921	-13.9076
-8.01677	-14.8716
-7.02378	-14.7747
-7.76921	-13.9076
-6.79552	-13.7118
-6.21711	-12.9044
-6.10769	-12.7644
-5.41887	-12.0301
-4.77391	-11.257
-6.10769	-12.7644
-5.42794	-13.5071
-6.21711	-12.9044
-6.10769	-12.7644
-5.16416	-12.3939
-4.27214	-11.9121
-4.77391	-11.257
-4.13331	-10.4891
-4.77385	-11.257
-4.77391	-11.257
-3.85032	-10.8686
-3.01511	-10.3149
-4.77385	-11.257
-3.90186	-10.7581
-3.00303	-10.3094
-4.211	-8.69644
-3.76458	-7.7929
-3.33092	-6.88319
-4.211	-8.69644
-3.60701	-9.50294
-3.00303	-10.3094
-4.211	-8.69644
-3.24226	-8.9115
-2.37449	-8.42975
-3.33092	-6.88319
-2.95198	-5.95717
-2.45823	-5.08704
-3.33092	-6.88319
-3.19892	-7.87018
-2.37449	-8.42975
-3.33092	-6.88319
-2.33023	-6.80615
-1.32955	-6.72911
-2.45823	-5.08704
-1.70728	-4.42723
-0.854684	-3.90515
-2.45823	-5.08704
-1.8939	-5.90808
-1.32955	-6.72911
-2.45823	-5.08704
-1.45804	-5.00604
-0.457843	-4.92505
-0.854684	-3.90515
0.145618	-3.85068
1.14589	-3.79559
1.1459	-3.79552
0.436567	-3.09068
1.14589	-3.79559
1.1459	-3.79552
1.48453	-2.84927
2.02546	-2.00262
6.1846	3.89725
5.46468	3.20224
4.98741	2.32317
4.33881	4.24101
4.64146	3.27814
4.98494	2.32905
4.33881	4.24101
5.33222	4.34105
6.22851	3.90212
5.90719	5.87676
5.90218	6.88165
5.89717	7.88654
5.90719	5.87676
6.16392	4.90519
6.22857	3.90212
5.89717	7.88654
6.83619	7.5332
7.78951	7.22061
5.89724	7.88653
6.85705	7.59237
7.78951	7.22061
5.95574	10.7954
6.49151	9.94406
6.95614	9.05183
5.95574	10.7954
6.95273	10.7605
7.94616	10.6692
6.53766	12.0495
6.92284	12.9732
7.36549	13.8708
6.53766	12.0495
7.11819	11.2335
7.94616	10.6692
6.53766	12.0495
7.53328	12.0596
8.49982	12.2986
7.36549	13.8708
7.92787	14.697
8.54997	15.4794
7.36549	13.8708
7.73574	12.9431
8.49982	12.2986
8.54997	15.4794
8.47104	14.4804
8.66871	13.4985
8.54997	15.4794
7.55641	15.5923
8.55005	15.4793
8.77056	16.6879
9.75648	16.8427
10.2115	17.7289
8.77056	16.6879
9.61941	16.1607
10.5301	15.7487
10.2115	17.7289
9.66615	18.5672
8.8232	19.1066
10.2115	17.7289
10.3708	16.7388
10.5301	15.7487
10.2115	17.7289
11.0198	17.1411
11.8281	16.5534
6.8746	22.3041
7.65096	22.9343
8.42733	23.5646
6.8746	22.3041
6.71013	23.2904
6.87455	22.304
-11.6934	-24.4905
-11.4432	-23.5212
-11.1099	-22.5772
-11.6934	-24.4905
-10.6991	-24.3373
-9.77659	-23.9348
-11.1099	-22.5772
-10.5961	-21.7185
-10.0057	-20.9107
-11.1099	-22.5772
-10.1111	-22.5281
-9.1123	-22.479
-7.76926	-16.6667
-7.39857	-15.7199
-7.02378	-14.7747
-7.76926	-16.6667
-7.07685	-17.3907
-6.36894	-18.0994
-7.76926	-16.6667
-6.80278	-16.3683
-5.80811	-16.1851
-7.02378	-14.7747
-6.62234	-13.8387
-6.21711	-12.9044
-7.02378	-14.7747
-6.14805	-15.2484
-5.80811	-16.1851
-7.02378	-14.7747
-6.20233	-14.1958
-5.4143	-13.572
-4.27214	-11.9121
-3.64301	-11.114
-3.01511	-10.3149
-3.01511	-10.3149
-2.40118	-9.51817
-3.00303	-10.3094
-3.01511	-10.3149
-2.06807	-10.6228
-2.31023	-11.5887
-3.00303	-10.3094
-2.01997	-10.025
-1.03131	-9.76064
-2.37449	-8.42975
-1.83384	-7.59059
-1.32955	-6.72911
-2.37449	-8.42975
-1.49123	-8.88169
-1.03131	-9.76064
-2.37449	-8.42975
-1.4465	-8.06632
-0.482305	-7.81408
-1.32955	-6.72911
-0.881707	-5.83287
-0.457843	-4.92505
-0.457843	-4.92505
0.238872	-5.65935
0.935589	-6.39365
1.14589	-3.79559
1.58567	-2.8991
2.02546	-2.00262
1.14589	-3.79559
1.8586	-4.50389
2.57132	-5.21219
1.14589	-3.79559
2.14241	-3.73923
3.13653	-3.64996
2.02546	-2.00262
2.60398	-2.81079
3.13653	-3.64996
2.02546	-2.00262
3.01136	-1.8166
4.0147	-1.84143
4.98741	2.32317
5.18318	1.33146
5.6984	0.462039
4.98494	2.32905
5.60673	3.11559
6.22851	3.90212
4.98494	2.32905
5.37619	1.40872
5.6984	0.462039
4.98494	2.32905
5.93403	2.02467
6.93036	2.04172
6.22851	3.90212
6.57942	2.97192
6.93036	2.04172
6.22851	3.90212
6.69397	3.01533
6.93034	2.0418
6.22857	3.90212
6.57944	2.97195
6.93034	2.0418
7.78951	7.22061
7.37282	8.13622
6.95614	9.05183
7.78951	7.22061
8.60156	6.63228
9.29545	5.90836
7.78951	7.22061
8.78724	7.1935
9.78238	7.11734
8.49982	12.2986
9.26415	11.6538
10.0285	11.0089
8.49982	12.2986
9.43133	12.6544
10.4245	12.5732
8.66871	13.4985
9.4821	12.9138
10.4245	12.5732
8.66871	13.4985
9.50945	14.0321
10.3502	14.5658
8.55005	15.4793
9.54006	15.614
10.5301	15.7487
8.55005	15.4793
9.45012	15.0225
10.3502	14.5658
10.5301	15.7487
11.2364	15.0398
11.8185	14.2258
11.8281	16.5534
12.6365	15.9657
13.4449	15.378
12.2204	16.9592
12.8327	16.1686
13.4449	15.378
-9.77659	-23.9348
-8.86003	-23.5349
-7.94346	-23.135
-9.77659	-23.9348
-8.9251	-23.398
-8.07362	-22.8611
-10.0001	-24.2712
-9.55619	-23.3751
-9.1123	-22.479
-6.36894	-18.0994
-6.08853	-17.1422
-5.80811	-16.1851
-6.36894	-18.0994
-5.36613	-18.1298
-4.36631	-18.211
-6.36894	-18.0994
-6.19359	-17.1188
-5.41339	-16.5006
-5.80811	-16.1851
-4.86131	-16.5061
-5.1561	-15.5547
-5.4143	-13.572
-4.89474	-12.7066
-4.27211	-11.9122
-5.4143	-13.572
-5.38606	-14.5766
-5.1561	-15.5547
-4.27211	-11.9122
-3.31767	-11.5894
-2.31023	-11.5887
-4.27211	-11.9122
-4.3251	-12.9099
-4.06996	-13.8756
-2.31023	-11.5887
-1.62445	-12.3128
-2.12896	-11.4473
-2.12896	-11.4473
-1.63218	-10.5703
-1.03131	-9.76064
-2.12896	-11.4473
-1.28327	-11.9771
-0.437571	-12.5069
-1.03131	-9.76064
-0.762595	-8.78572
-0.482305	-7.81408
-1.03131	-9.76064
-0.0474366	-9.48193
0.93464	-9.19696
-0.482305	-7.81408
0.17638	-7.05376
0.935589	-6.39365
-0.482305	-7.81408
0.191022	-8.54153
0.93464	-9.19696
0.935589	-6.39365
1.74792	-5.79526
2.57132	-5.21219
2.57132	-5.21219
3.56963	-5.05326
4.56794	-4.89432
3.13653	-3.64996
3.57561	-2.7457
4.0147	-1.84143
3.13653	-3.64996
3.65008	-4.50548
4.56794	-4.89432
3.13653	-3.64996
4.12265	-3.51271
5.1062	-3.35805
4.0147	-1.84143
4.8461	-2.39509
5.1062	-3.35805
4.0147	-1.84143
5.01552	-1.7454
6.0006	-1.5443
5.6984	0.462039
6.31438	1.25188
6.93036	2.04172
5.6984	0.462039
5.82365	-0.545062
6.0006	-1.5443
5.6984	0.462039
6.64165	0.802719
7.41043	1.44779
6.93036	2.04172
7.54533	2.8303
6.93034	2.0418
6.93036	2.04172
7.85583	2.41222
8.63198	3.03813
9.29545	5.90836
9.79858	5.03233
10.2933	4.15151
9.29545	5.90836
10.3015	5.87415
11.3075	5.83993
9.78238	7.11734
10.5449	6.47863
11.3075	5.83993
9.78238	7.11734
10.6878	6.68617
11.5291	6.14011
11.5291	6.14006
10.6864	6.67788
10.298	7.59766
10.4245	12.5732
10.2573	13.5649
10.3502	14.5658
10.4245	12.5732
11.1592	11.8898
11.8986	11.2115
10.3502	14.5658
11.2699	14.9641
12.27	15.0367
12.27	15.0367
12.2982	14.0398
12.5921	13.0871
12.27	15.0367
13.0027	14.3481
13.7384	13.6627
11.8185	14.2258
12.673	14.7437
13.4449	15.378
11.8185	14.2258
12.7784	13.9442
13.7384	13.6627
13.4449	15.378
14.0309	16.1872
14.4946	17.0722
13.4449	15.378
14.0572	14.5872
14.6695	13.7965
14.4946	17.0722
15.0354	16.2304
15.5773	15.3893
14.4946	17.0722
15.4921	17.122
16.4897	17.1717
-8.07362	-22.8611
-7.6726	-21.9459
-7.17825	-21.0776
-7.17825	-21.0776
-6.52659	-20.3127
-5.82469	-19.5936
-7.17825	-21.0776
-7.7376	-21.9135
-8.07355	-22.8611
-7.17825	-21.0776
-6.19523	-21.2598
-5.22509	-21.5012
-5.82469	-19.5936
-5.09909	-18.8985
-4.36631	-18.211
-5.82469	-19.5936
-5.51993	-20.5458
-5.22509	-21.5012
-4.36631	-18.211
-3.87686	-19.0804
-3.8534	-20.0788
-5.41339	-16.5006
-4.88981	-17.3558
-4.36623	-18.2109
-5.41339	-16.5006
-4.42705	-16.3676
-3.47309	-16.6534
-5.1561	-15.5547
-4.61303	-14.7151
-4.06996	-13.8756
-5.1561	-15.5547
-4.33786	-16.1395
-3.47309	-16.6534
-4.06996	-13.8756
-3.34097	-14.5612
-2.5185	-15.1318
-4.06996	-13.8756
-3.26321	-13.2882
-2.27406	-13.1612
-0.437472	-12.5068
-0.322372	-13.5002
-0.437521	-12.5068
-0.437571	-12.5069
0.551674	-12.3905
1.54092	-12.2741
0.513859	-11.1311
1.46981	-10.8375
2.42576	-10.544
0.93464	-9.19696
1.12464	-8.20277
1.41443	-7.23306
0.93464	-9.19696
1.67277	-9.87871
2.42576	-10.544
0.93464	-9.19696
1.89475	-8.88084
2.8692	-8.61226
1.41443	-7.23306
2.16391	-6.5611
3.02356	-6.03716
1.41443	-7.23306
2.15361	-7.91022
2.8692	-8.61226
3.02356	-6.03716
3.94155	-5.66263
4.56794	-4.89432
3.02356	-6.03716
3.92934	-5.6043
4.87272	-5.2612
4.56794	-4.89432
5.46324	-4.45428
4.87272	-5.2612
5.1062	-3.35805
5.5534	-2.45118
6.0006	-1.5443
5.1062	-3.35805
4.23711	-3.85646
5.22542	-3.97072
5.1062	-3.35805
6.09231	-3.23623
7.08536	-3.20239
6.0006	-1.5443
6.64714	-2.30562
7.08536	-3.20239
6.0006	-1.5443
6.90823	-1.11477
7.82591	-0.707205
7.41043	1.44779
7.98407	2.27151
8.63198	3.03813
8.63198	3.03813
9.46359	3.59339
10.2933	4.15151
8.63198	3.03813
9.17171	2.2007
9.62656	1.31432
10.2933	4.15151
10.928	4.91897
11.3075	5.83993
10.2933	4.15151
10.9509	3.38469
11.5516	2.57259
11.5291	6.14011
12.4344	5.70892
13.1329	4.99039
10.298	7.59766
10.5026	8.57724
10.8143	9.52814
10.298	7.59766
11.1217	8.16095
12.1136	8.28029
10.8143	9.52814
11.3464	10.3763
11.8986	11.2115
10.8143	9.52814
11.7053	9.97924
12.678	10.2045
11.8986	11.2115
12.2853	12.1345
12.5921	13.0871
11.8986	11.2115
12.8948	11.1775
12.678	10.2045
11.8986	11.2115
12.8955	11.1621
13.8266	11.5231
12.5921	13.0871
13.191	12.2907
13.8266	11.5231
13.7384	13.6627
14.4842	12.9878
15.2328	12.316
14.6695	13.7965
15.6682	13.7448
16.6676	13.7085
15.5773	15.3893
16.0335	16.2805
16.4897	17.1717
15.5773	15.3893
16.122	14.5486
16.6676	13.7085
15.5773	15.3893
16.5748	15.4411
17.5722	15.4929
16.4897	17.1717
17.0297	16.3315
17.5722	15.4929
-8.44811	-24.8263
-8.26083	-23.8437
-8.07355	-22.8611
-8.44811	-24.8263
-7.49894	-24.512
-6.57328	-24.1341
-8.07355	-22.8611
-7.44553	-23.641
-6.57328	-24.1341
-5.22509	-21.5012
-4.42863	-20.8964
-3.8534	-20.0788
-5.22509	-21.5012
-4.95054	-22.4598
-4.69155	-23.4226
-5.22509	-21.5012
-4.28937	-21.8549
-3.29612	-21.971
-3.8534	-20.0788
-3.87999	-19.0821
-4.36623	-18.2109
-3.8534	-20.0788
-3.71164	-21.0652
-3.29612	-21.971
-4.36623	-18.2109
-3.35723	-18.26
-2.34823	-18.3091
-3.47309	-16.6534
-2.85611	-17.4441
-2.34823	-18.3091
-3.47309	-16.6534
-2.4795	-16.7682
-1.4797	-16.7979
-2.5185	-15.1318
-2.53081	-14.1296
-2.27406	-13.1612
-2.5185	-15.1318
-1.82557	-15.857
-1.4797	-16.7979
-2.27406	-13.1612
-1.42993	-12.6267
-0.437521	-12.5068
-2.27406	-13.1612
-1.73854	-13.9983
-1.20301	-14.8354
-2.27406	-13.1612
-1.43474	-13.7059
-0.792341	-14.4735
-0.437521	-12.5068
0.564051	-12.4942
1.54092	-12.2741
-0.437521	-12.5068
-0.614935	-13.4902
-0.792341	-14.4735
1.54092	-12.2741
2.18444	-11.5122
2.42576	-10.544
2.42576	-10.544
2.67568	-9.58461
2.8692	-8.61226
2.42576	-10.544
3.23336	-11.1314
3.7209	-12.0022
2.42576	-10.544
3.38468	-10.2495
4.3436	-9.95508
2.8692	-8.61226
3.52066	-9.37819
4.3436	-9.95508
2.8692	-8.61226
3.87681	-8.61801
4.88419	-8.59754
3.99393	-7.04359
4.43332	-6.15239
4.87272	-5.2612
3.99393	-7.04359
4.8127	-7.6065
4.88419	-8.59754
3.99393	-7.04359
5.00027	-7.04256
6	-6.9282
4.87272	-5.2612
5.35698	-6.14818
6	-6.9282
4.87272	-5.2612
5.86741	-5.20679
6.85794	-5.10139
5.22542	-3.97072
6.10374	-4.44631
6.85794	-5.10139
5.22542	-3.97072
6.15541	-3.5866
7.08539	-3.20248
7.08536	-3.20239
6.46978	-3.99049
7.08539	-3.20248
7.82591	-0.707205
8.37353	-1.53962
8.92116	-2.37203
7.82591	-0.707205
8.82604	-0.606122
9.83129	-0.598469
9.62656	1.31432
9.98769	0.385451
9.83129	-0.598469
9.62656	1.31432
10.4753	0.788197
11.4538	0.590711
11.5516	2.57259
12.5393	2.71702
13.3778	3.25758
11.5516	2.57259
11.6304	1.57548
11.4538	0.590711
13.3778	3.25758
13.7287	4.19047
13.1329	4.99039
13.3778	3.25758
12.3855	3.12519
11.5517	2.57254
13.1329	4.99039
12.3393	5.60565
11.6557	6.34076
13.1329	4.99039
12.7477	4.06802
12.2696	3.1898
11.6557	6.34076
11.7676	7.33797
12.1136	8.28029
11.6557	6.34076
12.6084	6.62085
13.5611	6.90089
12.1136	8.28029
12.4058	9.23948
12.678	10.2045
12.1136	8.28029
12.9095	7.66615
13.5611	6.90089
12.1136	8.28029
13.0424	8.64202
14.0176	8.8473
12.678	10.2045
13.6555	10.0371
14.5824	9.68306
13.8266	11.5231
14.2141	10.607
14.5824	9.68306
13.7285	10.9981
14.4807	11.657
15.2328	12.316
15.2328	12.316
15.9857	12.9757
16.6676	13.7085
15.2328	12.316
15.6026	13.2451
15.2329	12.316
16.6676	13.7085
17.1631	14.5787
17.5722	15.4929
16.6676	13.7085
17.2122	12.8698
16.6675	13.7085
16.6676	13.7085
17.6713	13.7031
18.6673	13.8263
17.5722	15.4929
18.1181	14.6584
18.6673	13.8263
-6.57328	-24.1341
-5.63241	-23.7784
-4.69155	-23.4226
-6.57328	-24.1341
-5.67838	-24.5817
-4.77317	-25.008
-6.57328	-24.1341
-5.70962	-23.6387
-4.90904	-23.0466
-4.69155	-23.4226
-3.99387	-22.6968
-3.29619	-21.971
-3.29612	-21.971
-2.7117	-22.7824
-3.29619	-21.971
-3.29612	-21.971
-2.43629	-21.4506
-1.68643	-20.781
-2.34823	-18.3091
-1.49989	-17.7915
-1.4797	-16.7979
-1.4797	-16.7979
-1.41169	-15.8067
-1.20301	-14.8354
-1.4797	-16.7979
-2.16065	-17.5302
-1.47966	-16.798
-1.20301	-14.8354
-0.728364	-15.7156
-1.20308	-14.8354
-0.792341	-14.4735
-0.61493	-13.4902
-0.437512	-12.5068
3.7209	-12.0022
3.40349	-12.9505
3.72096	-12.0022
3.7209	-12.0022
4.12333	-11.0846
4.5828	-10.1943
4.3436	-9.95508
5.16347	-9.38233
4.5828	-10.1943
4.88419	-8.59754
5.45265	-7.76993
6	-6.9282
4.88419	-8.59754
5.80055	-8.2058
6.53655	-7.53351
6	-6.9282
6.48442	-6.04078
6.85794	-5.10139
6	-6.9282
6.85756	-6.42025
7.72198	-5.92411
6.85794	-5.10139
6.70279	-4.11904
7.08539	-3.20248
6.85794	-5.10139
7.75881	-4.66043
8.65637	-4.21274
7.08539	-3.20248
7.99885	-2.77753
8.92116	-2.37203
7.08539	-3.20248
8.06128	-3.41038
8.65637	-4.21274
8.92116	-2.37203
9.42078	-1.50823
9.83129	-0.598469
9.83129	-0.598469
10.6089	0.0419911
11.4538	0.590711
9.83129	-0.598469
9.27859	-1.43545
8.92124	-2.37198
11.4538	0.590711
12.3857	0.965252
13.2386	1.4961
11.5517	2.57254
12.3302	1.9329
13.2386	1.4961
11.5517	2.57254
12.3962	2.03442
13.2407	1.49629
12.2696	3.1898
12.5705	2.23753
13.2407	1.49629
12.2696	3.1898
13.266	3.19096
14.2625	3.19212
13.23	4.92966
13.3845	5.91713
13.5611	6.90089
13.5611	6.90089
13.7787	7.87658
14.0176	8.8473
13.5611	6.90089
13.5	5.89785
13.2301	4.92961
14.0176	8.8473
14.9848	8.6071
15.877	8.16276
14.5824	9.68306
15.0677	10.5596
15.1768	11.5549
14.5824	9.68306
15.1925	8.8913
15.877	8.16276
14.5824	9.68306
15.5789	9.72725
16.5212	10.0553
15.1768	11.5549
14.2859	12.0099
15.2329	12.316
15.1768	11.5549
15.85	10.806
16.5212	10.0553
15.2329	12.316
16.0008	12.96
16.6675	13.7085
15.2329	12.316
15.9502	13.0122
16.6675	13.7084
16.6675	13.7085
17.6464	13.9138
18.6463	13.9036
18.6673	13.8263
19.5588	14.2854
20.3852	14.8536
-4.77317	-25.008
-5.0179	-24.0393
-4.90904	-23.0466
-4.77317	-25.008
-3.93686	-24.4561
-3.10338	-23.9
-4.90904	-23.0466
-4.23327	-22.3134
-3.29619	-21.971
-4.90904	-23.0466
-4.00621	-23.4733
-3.10338	-23.9
-4.90904	-23.0466
-4.09014	-22.4771
-3.25929	-21.9251
-3.29619	-21.971
-4.02717	-21.2867
-3.25929	-21.9251
-1.68643	-20.781
-1.75536	-19.7769
-1.78529	-18.7708
-1.68643	-20.781
-0.767372	-21.1752
-1.68637	-20.781
-1.78529	-18.7708
-1.67219	-17.7782
-1.47966	-16.798
-1.78529	-18.7708
-0.897465	-19.2404
-0.00964447	-19.71
-1.78529	-18.7708
-0.878477	-18.3376
0.028332	-17.9044
-1.47966	-16.798
-1.29111	-15.8238
-1.20314	-14.8354
-1.47966	-16.798
-0.522469	-17.0728
0.028332	-17.9044
-1.47966	-16.798
-0.544967	-16.4139
0.389729	-16.0298
-1.20314	-14.8354
-1.11449	-13.8394
-1.20308	-14.8354
-1.20314	-14.8354
-0.406706	-15.4326
0.389729	-16.0298
2.86024	-13.8075
3.2906	-12.9049
3.72096	-12.0022
3.72096	-12.0022
4.15188	-11.0983
4.5828	-10.1943
3.72096	-12.0022
4.63519	-11.6001
5.57963	-11.9265
4.5828	-10.1943
4.978	-11.1195
5.57957	-11.9264
4.5828	-10.1943
5.1778	-9.38538
5.9752	-8.77553
4.88413	-8.59758
5.79151	-8.19153
6.53655	-7.53351
6.53655	-7.53351
7.19167	-6.77475
7.72198	-5.92411
6.53655	-7.53351
7.05012	-8.39173
7.56368	-9.24994
7.72198	-5.92411
8.00182	-4.96555
8.65637	-4.21274
7.72198	-5.92411
8.26033	-6.76267
8.74247	-7.63474
7.72198	-5.92411
8.7211	-5.84125
9.72265	-5.88888
8.65637	-4.21274
9.62684	-4.45408
8.65643	-4.21272
8.65637	-4.21274
9.15834	-5.07066
9.72265	-5.88888
8.65637	-4.21274
9.64607	-4.07779
10.6437	-4.13
8.65643	-4.21272
8.43081	-3.24158
8.92124	-2.37198
8.92124	-2.37198
9.85734	-2.73937
10.8478	-2.91634
11.4074	0.68869
12.323	1.0924
13.2386	1.4961
11.4074	0.68869
12.2014	0.08133
13.0749	-0.404776
13.2407	1.49629
13.8836	2.26492
14.2625	3.19212
13.2407	1.49629
13.9114	0.754506
13.2407	1.49622
13.2407	1.49629
14.0841	0.958914
13.2407	1.49635
14.2625	3.19212
13.8073	4.09702
13.2301	4.92961
15.1012	6.31942
15.4863	7.24229
15.877	8.16276
15.1012	6.31942
16.0936	6.44245
17.086	6.56547
15.877	8.16276
16.2804	9.08146
16.5212	10.0553
15.877	8.16276
16.4959	7.37497
17.086	6.56547
15.877	8.16276
16.8346	7.89586
17.6746	8.42824
16.5212	10.0553
16.2458	11.0172
15.925	11.9651
16.5212	10.0553
17.1823	9.30148
17.6746	8.42824
15.925	11.9651
16.0052	12.9609
16.6675	13.7084
15.925	11.9651
16.9128	11.8167
17.8471	11.4638
16.6675	13.7084
17.6482	13.8921
18.6463	13.9036
18.6463	13.9036
19.5735	14.2726
20.3852	14.8536
18.6463	13.9036
18.5545	12.9082
18.5842	11.9091
18.6463	13.9036
19.5441	13.4606
20.3434	12.8575
20.3852	14.8536
20.3643	13.8555
20.3434	12.8575
-3.10338	-23.9
-3.32277	-22.9235
-3.25929	-21.9251
-3.10338	-23.9
-2.27709	-23.3333
-1.45775	-22.7565
-3.25929	-21.9251
-2.60321	-21.1743
-1.68637	-20.781
-3.25929	-21.9251
-2.39554	-22.421
-1.45775	-22.7565
-1.68637	-20.781
-0.789076	-20.3376
-0.00964447	-19.71
-1.68637	-20.781
-2.60536	-20.3869
-1.6863	-20.7811
-1.68637	-20.781
-0.859698	-20.2271
-0.00957764	-19.7099
-0.00964447	-19.71
0.424853	-18.8166
0.028332	-17.9044
-0.00964447	-19.71
0.849239	-19.1952
1.74076	-18.7393
0.028332	-17.9044
-0.0738043	-16.9125
0.389729	-16.0298
0.028332	-17.9044
0.751827	-18.5951
1.74076	-18.7393
0.389729	-16.0298
1.14282	-15.3619
1.98897	-14.8167
1.98897	-14.8167
2.93025	-14.4625
3.89129	-14.1659
1.98897	-14.8167
2.05167	-15.8124
2.11437	-16.8082
3.89129	-14.1659
4.77805	-14.6337
5.64666	-15.1343
3.89129	-14.1659
4.7859	-13.7101
5.75448	-13.4466
5.57963	-11.9265
5.36389	-12.9029
5.57957	-11.9264
5.57963	-11.9265
6.30104	-12.6127
5.75448	-13.4466
5.9752	-8.77553
6.59615	-9.55037
6.94226	-10.481
5.9752	-8.77553
6.97382	-8.89545
7.92952	-9.20981
7.56368	-9.24994
8.16671	-8.45229
8.74247	-7.63474
8.74247	-7.63474
9.26306	-6.77893
9.72265	-5.88888
8.74247	-7.63474
9.16063	-8.54028
9.93667	-9.16585
8.74247	-7.63474
9.742	-7.59273
10.7415	-7.55071
9.72265	-5.88888
10.0869	-4.9589
10.6437	-4.13
9.72265	-5.88888
10.3982	-6.61817
10.7415	-7.55071
9.72265	-5.88888
10.7262	-5.8592
11.7283	-5.79677
10.6437	-4.13
11.5187	-3.65128
10.8478	-2.91634
10.6437	-4.13
11.186	-4.96338
11.7283	-5.79677
10.8478	-2.91634
11.7406	-3.39453
12.5731	-3.97138
10.8478	-2.91634
11.714	-3.40727
12.6617	-3.71271
11.8394	-1.97451
12.4994	-1.22282
13.0749	-0.404776
11.8394	-1.97451
12.8376	-2.02558
13.835	-2.09065
13.0749	-0.404776
13.4555	0.520178
13.2407	1.49622
13.0749	-0.404776
14.0476	-0.630485
15.0364	-0.490549
13.2407	1.49622
12.2758	1.75871
13.2407	1.49635
13.2407	1.49622
14.2541	1.44712
15.2675	1.39803
13.2407	1.49635
13.9204	2.22923
14.2837	3.16123
14.2837	3.16123
14.7919	4.02224
15.3692	4.83851
14.2837	3.16123
14.7756	2.27967
15.2675	1.39811
15.3692	4.83851
15.8288	3.94994
16.2883	3.06137
17.086	6.56547
17.5796	7.43419
17.6746	8.42824
17.6746	8.42824
17.0534	9.21041
16.5213	10.0553
17.6746	8.42824
17.622	7.42889
17.341	6.46815
16.5213	10.0553
17.001	10.9314
17.8471	11.4638
16.5213	10.0553
17.1042	9.24015
17.6871	8.42499
17.8471	11.4638
18.5954	10.7998
19.2204	10.0186
18.5842	11.9091
19.4638	12.3833
20.3434	12.8575
18.5842	11.9091
18.8426	10.9438
19.2204	10.0186
18.5842	11.9091
19.2263	12.6758
19.8683	13.4425
-1.45775	-22.7565
-1.70476	-21.784
-1.6863	-20.7811
-1.45775	-22.7565
-0.650336	-22.1666
0.151825	-21.5695
-1.6863	-20.7811
-0.919389	-20.134
-0.00957764	-19.7099
-1.6863	-20.7811
-0.767235	-21.1753
0.151825	-21.5695
-0.00957764	-19.7099
0.908325	-19.3015
1.74076	-18.7393
-0.00957764	-19.7099
0.911904	-20.0983
1.83339	-20.4868
-0.00957764	-19.7099
0.862011	-19.2181
1.74084	-18.7393
1.74076	-18.7393
2.09832	-17.8069
2.11437	-16.8081
1.74076	-18.7393
2.29011	-17.9037
1.74084	-18.7393
1.74076	-18.7393
2.69436	-18.4289
3.64004	-18.0952
2.11437	-16.8081
2.13043	-15.8083
2.11437	-16.8082
2.11437	-16.8081
2.8772	-17.4517
3.64004	-18.0952
5.64666	-15.1343
6.22458	-14.3235
5.75448	-13.4466
5.64666	-15.1343
6.45572	-15.7149
7.19905	-16.3777
5.64666	-15.1343
6.58324	-14.7679
7.51663	-14.3934
5.75448	-13.4466
5.03518	-12.7583
5.57969	-11.9264
5.75448	-13.4466
6.68086	-13.8353
7.51658	-14.3933
5.57969	-11.9264
6.21279	-11.1583
6.94226	-10.481
5.57969	-11.9264
6.54677	-12.1603
7.51385	-12.3942
6.94226	-10.481
7.24291	-11.4332
7.51385	-12.3942
6.94226	-10.481
7.91106	-10.7031
8.87987	-10.9252
7.92952	-9.20981
8.9348	-9.26206
9.93667	-9.16585
7.92952	-9.20981
8.2289	-10.1653
8.87987	-10.9252
9.93667	-9.16585
10.716	-8.54673
10.7415	-7.55071
9.93667	-9.16585
10.9375	-9.18362
11.9319	-9.06741
9.93667	-9.16585
10.8613	-8.79962
11.7856	-8.43255
10.7415	-7.55071
10.7971	-8.54669
11.7856	-8.43255
11.7283	-5.79677
12.1507	-4.88407
12.5731	-3.97138
11.7283	-5.79677
12.7232	-5.71292
13.7169	-5.61558
12.5731	-3.97138
13.1896	-4.76245
13.7169	-5.61558
12.5731	-3.97138
13.5814	-3.88351
14.5925	-3.83659
12.6617	-3.71271
13.2412	-2.89649
13.835	-2.09065
12.6617	-3.71271
13.6413	-3.55326
14.5925	-3.83659
12.6617	-3.71271
13.656	-3.84424
14.6566	-3.91301
13.835	-2.09065
14.4606	-1.30927
15.0364	-0.490549
13.835	-2.09065
14.2458	-3.00183
14.6566	-3.91301
13.835	-2.09065
14.8302	-2.18192
15.824	-2.28743
15.0364	-0.490549
15.4559	0.417013
15.2675	1.39803
15.0364	-0.490549
15.9334	-0.0512638
16.9003	0.197959
15.2675	1.39803
14.3096	1.68526
15.2675	1.39811
15.2675	1.39803
16.0839	0.797993
16.9003	0.197959
15.2675	1.39811
15.9652	2.11433
16.2883	3.06137
16.2883	3.06137
17.2717	2.88758
18.2168	2.56512
17.7697	4.51456
17.5553	5.49135
17.341	6.46815
17.7697	4.51456
17.9932	3.53984
18.2168	2.56512
17.341	6.46815
17.0839	5.50012
16.8369	4.52947
17.341	6.46815
18.0353	5.75021
18.7296	5.03228
17.6871	8.42499
18.3595	7.68195
19.077	6.98243
17.1233	7.41529
18.1002	7.19886
19.077	6.98243
17.1233	7.41529
18.0979	7.19366
19.0726	6.97277
19.2204	10.0186
19.8443	9.23711
20.4679	8.45536
0.151825	-21.5695
0.992604	-21.0281
1.83339	-20.4868
1.74084	-18.7393
2.68882	-18.4125
3.64004	-18.0952
1.74084	-18.7393
2.26544	-19.5903
3.11432	-20.12
3.64004	-18.0952
4.59907	-17.8039
5.54711	-17.4786
3.64004	-18.0952
4.48656	-17.5581
5.3139	-16.992
5.54711	-17.4786
6.44956	-17.0427
7.19905	-16.3777
7.19905	-16.3777
7.4307	-15.3973
7.51663	-14.3934
7.19905	-16.3777
7.94547	-17.0432
7.19901	-16.3777
7.19905	-16.3777
8.12358	-15.9902
9.07003	-15.6598
7.51663	-14.3934
8.29333	-15.0266
9.07003	-15.6598
7.51663	-14.3934
8.44172	-13.9898
9.36405	-13.5799
7.51658	-14.3933
7.42275	-13.3938
7.51385	-12.3942
7.51385	-12.3942
8.1398	-11.6068
8.87987	-10.9252
8.87987	-10.9252
9.85244	-10.6982
10.8374	-10.5344
11.9319	-9.06741
12.9122	-9.26479
13.4722	-10.092
11.9319	-9.06741
12.8129	-8.59281
13.694	-8.11821
11.7856	-8.43255
12.7004	-8.03185
13.694	-8.11821
11.7856	-8.43255
12.7182	-8.06158
13.7133	-7.93318
13.6829	-7.61083
13.6336	-6.61204
13.7169	-5.61558
13.6829	-7.61083
14.6828	-7.57662
15.6827	-7.54242
13.7169	-5.61558
14.0593	-4.6792
14.5925	-3.83659
14.5925	-3.83659
15.5828	-4.0007
16.5599	-4.2309
14.6566	-3.91301
15.2403	-3.10022
15.824	-2.28743
14.6566	-3.91301
15.6562	-3.98727
16.6515	-4.10688
15.824	-2.28743
16.2377	-3.19716
16.6515	-4.10688
16.9003	0.197959
17.8119	-0.238396
18.678	-0.759634
19.2633	1.15282
18.9707	0.196593
18.678	-0.759634
18.2228	0.568839
18.2198	1.56698
18.2168	2.56512
18.2228	0.568839
19.1027	0.0771414
19.9826	-0.414555
18.2228	0.568839
19.0889	1.07872
19.9551	1.5886
18.2168	2.56512
19.0508	2.01404
19.9551	1.58868
16.8369	4.52947
17.8347	4.58818
18.7296	5.03228
18.7296	5.03228
19.0498	5.98105
19.077	6.98243
18.7296	5.03228
18.672	4.03151
18.6143	3.03075
19.077	6.98243
19.8954	6.4067
20.754	5.89289
19.0726	6.97277
19.8993	6.41093
20.754	5.89289
19.0726	6.97277
20.0482	6.75314
21.024	6.53421
20.4679	8.45536
20.7459	7.49478
21.024	6.53421
4.34206	-21.663
3.59972	-20.9934
3.11432	-20.12
4.34206	-21.663
4.81814	-20.7821
5.29424	-19.9013
3.11432	-20.12
3.25575	-19.1299
3.78985	-18.2839
3.78985	-18.2839
4.51504	-17.5945
5.3139	-16.992
3.78985	-18.2839
4.73105	-18.6218
5.67226	-18.9596
5.3139	-16.992
5.49308	-17.9758
5.67226	-18.9596
5.3139	-16.992
6.20934	-16.5398
7.19896	-16.3778
7.19901	-16.3777
8.13452	-16.0188
9.07003	-15.6598
7.19901	-16.3777
6.45256	-15.7123
7.19896	-16.3778
7.19901	-16.3777
8.17321	-16.1517
9.14741	-15.9256
9.07003	-15.6598
10.0605	-15.4852
11.0579	-15.3566
9.36405	-13.5799
10.2541	-13.1041
11.0513	-12.4855
11.0513	-12.4855
11.1344	-11.4894
10.8374	-10.5344
11.0513	-12.4855
11.8806	-13.0423
12.3273	-13.9349
11.0513	-12.4855
11.5982	-13.3228
11.0514	-12.4855
10.8374	-10.5344
11.117	-11.4904
11.0514	-12.4855
13.4722	-10.092
13.5831	-9.10512
13.694	-8.11821
13.4722	-10.092
12.5509	-10.4827
11.5774	-10.7165
13.4722	-10.092
12.7363	-9.41488
13.4722	-10.092
13.694	-8.11821
13.7328	-9.1216
13.4722	-10.092
13.7133	-7.93318
14.7084	-7.78983
15.6827	-7.54242
13.7133	-7.93318
14.4815	-8.56949
14.9783	-9.43418
13.7133	-7.93318
14.4912	-8.56073
14.9783	-9.43409
15.6827	-7.54242
16.5022	-6.96724
17.0327	-6.11829
15.6827	-7.54242
15.3305	-8.48825
14.9783	-9.43409
17.0327	-6.11829
17.0203	-5.11858
16.5599	-4.2309
17.0327	-6.11829
16.3303	-6.82743
15.9725	-7.75872
17.0327	-6.11829
16.4573	-5.30039
17.0712	-6.08981
16.5599	-4.2309
15.8208	-3.55423
16.6515	-4.10688
16.5599	-4.2309
17.5414	-4.45249
18.5216	-4.67991
16.6515	-4.10688
17.5985	-4.42896
18.578	-4.63179
16.6515	-4.10688
17.6234	-4.33772
18.5781	-4.63176
18.578	-4.63179
17.5861	-4.50531
18.5781	-4.63176
18.678	-0.759634
19.5198	-1.29676
19.9826	-0.414555
18.678	-0.759634
19.6281	-1.11034
20.6049	-1.37772
19.9826	-0.414555
19.9078	0.586353
19.9551	1.5886
19.9551	1.5886
20.8583	2.01777
19.9551	1.58868
19.9551	1.5886
20.7969	1.05424
21.5256	0.37368
19.9551	1.58868
19.1499	2.1839
18.6143	3.03075
19.9551	1.58868
20.5353	2.40316
19.9551	1.58866
19.9551	1.58868
20.949	1.69606
21.8997	2.00568
22.5735	3.86369
21.9218	4.62211
22.5736	3.86372
20.754	5.89289
21.6559	5.46012
22.5854	5.09023
20.754	5.89289
21.6121	5.37939
20.754	5.89291
5.29424	-19.9013
5.77037	-19.0204
6.24651	-18.1396
6.24651	-18.1396
6.46431	-19.1155
6.24654	-18.1395
7.19896	-16.3778
7.94537	-17.0433
7.19894	-16.3779
7.19896	-16.3778
8.01373	-16.9562
8.55006	-17.7999
9.14741	-15.9256
10.1194	-15.6974
11.0579	-15.3566
9.14741	-15.9256
9.01401	-16.9157
8.55006	-17.7999
11.0579	-15.3566
11.9162	-14.8448
12.3273	-13.9349
11.0579	-15.3566
10.0764	-15.5445
9.16096	-15.9448
11.0579	-15.3566
12.0497	-15.2287
11.058	-15.3566
12.3273	-13.9349
11.8806	-13.0423
11.0514	-12.4855
12.3273	-13.9349
11.9135	-14.8423
11.058	-15.3566
11.0514	-12.4855
11.6074	-13.3167
12.386	-13.9448
11.0514	-12.4855
10.5046	-11.6482
11.0515	-12.4855
11.5774	-10.7165
12.5248	-10.4042
13.4722	-10.092
11.5774	-10.7165
10.9547	-11.4935
11.0515	-12.4855
11.5774	-10.7165
12.148	-11.5364
13.0102	-12.0398
13.4722	-10.092
13.2633	-11.0711
13.0102	-12.0398
13.4722	-10.092
14.206	-10.7672
14.9408	-11.4414
14.9783	-9.43418
14.0709	-9.01389
14.9783	-9.43409
14.9783	-9.43418
15.0249	-10.4389
14.9408	-11.4414
15.9725	-7.75872
16.4879	-6.90191
17.0712	-6.08981
15.9725	-7.75872
16.2189	-8.72553
16.8299	-9.51484
15.9725	-7.75872
16.9711	-7.81876
17.9697	-7.8788
17.0712	-6.08981
17.785	-5.37321
18.5216	-4.67991
17.0712	-6.08981
17.5252	-6.98193
17.9697	-7.8788
18.5216	-4.67991
18.9572	-5.57932
19.3929	-6.47873
18.5216	-4.67991
19.4942	-4.93737
20.4667	-5.19516
18.5781	-4.63176
19.3765	-4.01099
20.1107	-3.31549
18.5781	-4.63176
19.5689	-4.75805
20.4667	-5.19516
20.1107	-3.31549
20.4169	-2.36175
20.6049	-1.37772
20.1107	-3.31549
20.0067	-4.30931
20.4668	-5.19513
20.1107	-3.31549
21.0827	-3.03164
22.064	-2.78151
20.6049	-1.37772
20.9675	-0.450671
21.5256	0.37368
20.6049	-1.37772
21.3344	-2.07961
22.064	-2.78151
20.6049	-1.37772
21.6154	-1.36998
22.6239	-1.30434
21.5256	0.37368
22.0803	-0.461688
22.6239	-1.30434
21.5256	0.37368
22.3677	0.906332
23.3055	0.5725
19.9551	1.58866
20.9542	1.67302
21.8997	2.00568
21.8997	2.00568
22.3839	2.88109
22.5736	3.86372
21.8997	2.00568
22.5241	1.22339
23.1878	0.474209
21.8997	2.00568
22.8838	2.19907
23.8754	2.349
22.5736	3.86372
23.2245	3.10636
23.8754	2.349
22.5736	3.86372
23.5283	4.16087
24.4829	4.45801
22.5854	5.09023
21.6697	5.49157
20.754	5.89291
22.5854	5.09023
23.5306	4.76342
24.4829	4.45801
6.24654	-18.1395
6.72274	-17.2587
7.19894	-16.3779
8.55006	-17.7999
8.6597	-16.8076
9.16096	-15.9448
8.55006	-17.7999
7.66239	-18.2552
6.66593	-18.3118
9.16096	-15.9448
10.0813	-15.5604
11.058	-15.3566
9.16096	-15.9448
8.47797	-16.6803
8.02277	-17.5748
11.058	-15.3566
11.9077	-14.825
12.386	-13.9448
12.386	-13.9448
11.7868	-13.1533
11.0515	-12.4855
12.386	-13.9448
13.1642	-14.5727
13.9425	-15.2007
11.0515	-12.4855
12.0086	-12.1655
13.0102	-12.0398
11.0515	-12.4855
11.5995	-13.3245
12.386	-13.9446
13.0102	-12.0398
12.6063	-12.9623
12.386	-13.9446
13.0102	-12.0398
13.995	-11.8037
14.9408	-11.4415
14.9408	-11.4414
15.6734	-12.1112
16.4141	-12.7722
14.9782	-9.43419
15.8886	-9.83867
16.8299	-9.51484
16.8299	-9.51484
17.4643	-8.74191
17.9697	-7.8788
16.8299	-9.51484
17.8264	-9.53496
18.8106	-9.69214
17.9697	-7.8788
18.6433	-7.14014
19.3929	-6.47873
17.9697	-7.8788
18.3921	-8.78459
18.8106	-9.69214
19.3929	-6.47873
20.3592	-6.73536
21.3255	-6.99199
20.4667	-5.19516
20.9948	-6.04627
21.3255	-6.99199
20.4667	-5.19516
21.4386	-5.42224
22.434	-5.3532
20.4668	-5.19513
21.4599	-5.161
22.434	-5.3532
22.064	-2.78151
22.9098	-2.25743
22.6239	-1.30434
22.064	-2.78151
23.0849	-2.71345
24.1071	-2.6684
22.6239	-1.30434
23.3261	-2.02921
24.1071	-2.6684
23.3055	0.5725
22.9043	-0.34403
22.624	-1.30436
23.3055	0.5725
23.897	-0.229847
24.5796	-0.955959
23.1878	0.474209
23.5316	1.41161
23.8754	2.349
23.1878	0.474209
23.9323	-0.193706
24.5796	-0.955959
23.1878	0.474209
24.1722	0.650977
25.1566	0.827751
7.19892	-16.3779
6.93242	-17.3449
6.66593	-18.3118
6.66593	-18.3118
7.43924	-18.9483
8.25443	-19.5302
8.02277	-17.5748
8.59188	-16.7598
9.16099	-15.9447
8.02277	-17.5748
7.98001	-18.5712
8.25443	-19.5302
8.02277	-17.5748
8.92055	-18.0177
9.86772	-18.3415
9.16099	-15.9447
10.1277	-16.1977
11.0925	-16.4579
13.9425	-15.2007
13.1642	-14.5727
12.386	-13.9447
12.386	-13.9447
11.6077	-13.3168
12.386	-13.9446
12.386	-13.9447
13.1462	-14.5935
14.1025	-14.8817
12.386	-13.9446
13.1424	-14.5989
14.1025	-14.8817
12.386	-13.9446
13.3522	-13.6967
13.9537	-12.8998
14.9408	-11.4415
15.5733	-12.2226
16.4141	-12.7722
14.9408	-11.4415
14.0598	-11.9095
13.9537	-12.8998
16.4141	-12.7722
17.0084	-11.9701
17.3085	-11.017
17.3085	-11.017
18.0106	-10.2991
18.8106	-9.69214
17.3085	-11.017
16.3386	-11.2883
15.3688	-11.5596
18.8106	-9.69214
19.2429	-10.5913
19.0424	-11.5676
18.8106	-9.69214
19.7596	-10.0042
20.6761	-10.4016
18.9245	-9.45958
19.8593	-9.82129
20.6761	-10.4016
18.9245	-9.45958
19.6103	-8.73428
20.5514	-8.40332
21.3255	-6.99199
21.9901	-6.24708
22.434	-5.3532
22.434	-5.3532
22.4815	-4.35884
22.5844	-3.36877
22.434	-5.3532
22.5127	-6.35046
22.233	-7.31178
22.434	-5.3532
23.329	-4.88755
24.2523	-4.48139
22.5844	-3.36877
23.1204	-2.53017
24.1071	-2.6684
22.5844	-3.36877
23.4184	-3.92508
24.2523	-4.48139
24.1071	-2.6684
25.0646	-3.04012
26	-3.4641
22.624	-1.30436
23.6239	-1.25347
24.5796	-0.955959
22.624	-1.30436
22.6146	-2.30492
22.7307	-3.29882
24.5796	-0.955959
25.1965	-0.170363
25.1566	0.827751
24.5796	-0.955959
24.8796	-1.90928
24.8294	-2.90751
24.5796	-0.955959
25.5774	-1.00126
26.512	-0.647388
25.1566	0.827751
24.604	1.66237
23.8754	2.349
25.1566	0.827751
25.8343	0.0901801
26.512	-0.647388
8.25443	-19.5302
9.06108	-18.9358
9.86772	-18.3415
8.25443	-19.5302
9.1528	-19.969
10.085	-20.3304
9.86772	-18.3415
9.97637	-19.3359
10.085	-20.3304
9.86772	-18.3415
10.8694	-18.3759
11.8686	-18.2975
11.0925	-16.4579
11.4806	-17.3777
11.8686	-18.2975
11.0925	-16.4579
12.0547	-16.7315
13.0533	-16.6794
12.3114	-14.8278
13.1947	-15.2927
14.1025	-14.8817
12.3114	-14.8278
12.6823	-15.7536
13.0533	-16.6794
12.3114	-14.8278
13.3048	-14.9736
14.2983	-15.1194
14.1025	-14.8817
14.1126	-13.8847
13.9537	-12.8998
14.1025	-14.8817
14.9844	-14.4094
15.6645	-13.6752
13.9537	-12.8998
14.5111	-12.0717
15.3687	-11.5597
13.9537	-12.8998
14.67	-13.5931
15.6645	-13.6752
13.9537	-12.8998
14.4811	-12.0514
15.4165	-11.7052
15.3687	-11.5597
16.2274	-11.047
15.3688	-11.5596
15.3688	-11.5596
16.219	-12.0781
17.1964	-12.2681
19.0424	-11.5676
19.8593	-10.9846
20.6761	-10.4016
19.0424	-11.5676
18.1785	-12.0728
17.1964	-12.2681
19.0424	-11.5676
19.9599	-11.9651
20.8773	-12.3626
20.6761	-10.4016
20.9429	-11.3648
20.8773	-12.3626
20.6761	-10.4016
21.5936	-10.7995
20.6762	-10.4016
20.5514	-8.40332
21.3922	-7.85755
22.233	-7.31178
20.5514	-8.40332
20.6138	-9.40246
20.6762	-10.4016
20.5514	-8.40332
21.4765	-8.77209
22.3298	-9.28616
22.233	-7.31178
22.1346	-8.30621
22.3298	-9.28616
22.233	-7.31178
23.2243	-7.18017
24.2156	-7.04856
24.2523	-4.48139
25.1262	-3.97275
26	-3.4641
24.2523	-4.48139
25.198	-4.80632
25.9834	-5.42609
26	-3.4641
26.1936	-4.44654
25.9834	-5.42609
22.7307	-3.29882
23.4134	-4.03069
24.0961	-4.76255
24.8294	-2.90751
24.5253	-3.85973
24.0961	-4.76255
11.8686	-18.2975
12.4612	-17.4886
13.0533	-16.6794
13.0533	-16.6794
13.6419	-15.8723
14.2983	-15.1194
13.0533	-16.6794
13.7623	-15.9687
14.2983	-15.1194
14.2983	-15.1194
15.061	-14.4724
15.6645	-13.6752
14.2983	-15.1194
14.6817	-16.043
14.2983	-15.1194
14.2983	-15.1194
15.2877	-15.2646
14.2983	-15.1194
15.6645	-13.6752
15.6841	-12.6722
15.4165	-11.7052
15.4165	-11.7052
14.9378	-10.8277
15.4823	-11.667
15.4165	-11.7052
15.5545	-12.6882
15.6925	-13.6712
15.4165	-11.7052
15.6917	-12.6685
15.6925	-13.6711
15.4823	-11.667
16.2051	-12.3498
17.1964	-12.2681
15.4823	-11.667
15.5644	-12.6715
15.6925	-13.6711
15.4823	-11.667
16.4191	-12.0213
17.2658	-12.5559
17.1964	-12.2681
18.1888	-12.1462
19.15	-11.8705
20.8773	-12.3626
20.6063	-11.3993
20.6762	-10.4016
20.6762	-10.4016
21.4376	-9.74722
22.3298	-9.28616
22.3298	-9.28616
22.8471	-10.1413
23.5112	-10.8884
22.3298	-9.28616
23.3287	-9.30637
24.2938	-9.04703
24.2156	-7.04856
24.2547	-8.0478
24.2938	-9.04703
25.9834	-5.42609
26.9267	-5.75786
25.9833	-5.42614
25.9834	-5.42609
25.6354	-6.36009
25.1741	-7.24374
25.9833	-5.42614
25.0397	-5.09435
24.0961	-4.76255
25.9833	-5.42614
26.933	-5.73926
25.9833	-5.42616
14.2983	-15.1194
14.9954	-14.3953
15.6925	-13.6712
15.6925	-13.6712
16.0434	-14.6063
16.3944	-15.5415
15.6925	-13.6711
16.0001	-14.6226
16.3944	-15.5415
15.6925	-13.6711
15.9829	-14.629
16.3944	-15.5414
17.2658	-12.5559
18.2131	-12.2277
19.15	-11.8705
17.2658	-12.5559
17.7561	-13.4275
18.0315	-14.3892
19.15	-11.8705
20.0543	-11.4376
20.9449	-10.9771
20.9449	-10.9771
21.6514	-11.6836
22.3579	-12.3902
20.9449	-10.9771
21.9149	-10.7223
22.885	-10.4675
23.5112	-10.8884
23.8938	-9.96405
24.2938	-9.04703
23.5112	-10.8884
23.9024	-9.96776
24.2937	-9.04707
24.2938	-9.04703
24.7312	-8.14405
25.1741	-7.24374
25.1741	-7.24374
25.5932	-6.34141
25.9833	-5.42616
16.3944	-15.5415
15.5767	-16.117
16.3944	-15.5414
16.3944	-15.5414
17.2129	-14.9653
18.0315	-14.3892
22.3579	-12.3902
22.5399	-11.4064
22.885	-10.4675
22.885	-10.4675
23.5416	-9.71006
24.2937	-9.04707
