0	812	1
0	813	8
0	814	9
1	815	2
1	816	9
2	817	3
3	818	11
3	819	12
4	820	5
4	821	13
5	822	13
6	823	17
6	824	18
7	825	8
7	826	18
7	827	19
8	828	9
8	829	19
9	830	10
9	831	21
10	832	11
11	833	12
11	834	22
11	835	23
12	836	13
12	837	24
13	838	14
13	839	24
13	840	25
14	841	15
14	842	25
14	843	26
15	844	26
16	845	31
16	846	32
17	847	18
17	848	32
18	849	33
18	850	34
19	851	20
20	852	21
20	853	35
20	854	36
21	855	37
22	856	37
22	857	38
23	858	24
23	859	38
23	860	39
24	861	40
25	862	40
26	863	41
27	864	28
27	865	43
28	866	44
29	867	45
29	868	46
30	869	31
30	870	47
31	871	32
32	872	49
34	873	51
35	874	36
35	875	52
35	876	53
36	877	37
36	878	53
36	879	54
37	880	38
37	881	54
37	882	55
38	883	39
38	884	55
38	885	56
39	886	40
39	887	56
40	888	41
40	889	58
41	890	59
42	891	43
42	892	60
43	893	44
43	894	60
43	895	61
44	896	45
45	897	46
45	898	62
47	899	48
47	900	67
47	901	68
48	902	68
48	903	69
49	904	50
49	905	69
49	906	70
50	907	70
51	908	52
51	909	71
51	910	72
53	911	74
54	912	55
54	913	74
54	914	75
55	915	75
56	916	57
56	917	76
57	918	77
57	919	78
58	920	78
58	921	79
59	922	60
59	923	79
59	924	80
61	925	62
61	926	81
61	927	82
62	928	82
63	929	64
64	930	65
64	931	84
64	932	85
65	933	86
66	934	88
67	935	89
68	936	69
68	937	91
69	938	70
69	939	91
70	940	92
70	941	93
71	942	93
72	943	73
73	944	95
74	945	75
74	946	96
75	947	76
76	948	77
76	949	98
77	950	78
77	951	99
77	952	100
78	953	79
78	954	101
79	955	80
79	956	102
80	957	81
80	958	103
81	959	82
81	960	103
81	961	104
82	962	104
83	963	84
83	964	105
84	965	85
84	966	106
84	967	107
85	968	86
85	969	108
86	970	109
87	971	110
87	972	111
88	973	89
88	974	112
89	975	90
89	976	112
89	977	113
90	978	91
90	979	114
91	980	92
91	981	115
92	982	93
93	983	94
93	984	116
94	985	95
94	986	117
94	987	118
95	988	96
95	989	119
96	990	97
96	991	119
96	992	120
98	993	122
99	994	123
101	995	102
101	996	125
102	997	103
102	998	125
102	999	126
103	1000	126
104	1001	105
104	1002	127
104	1003	128
105	1004	106
105	1005	128
105	1006	129
107	1007	131
108	1008	109
108	1009	131
108	1010	132
109	1011	132
110	1012	111
110	1013	135
111	1014	112
112	1015	113
113	1016	138
113	1017	139
114	1018	115
114	1019	139
115	1020	140
116	1021	141
117	1022	142
117	1023	143
120	1024	121
120	1025	146
121	1026	122
121	1027	146
122	1028	123
122	1029	147
122	1030	148
123	1031	124
123	1032	149
124	1033	125
125	1034	126
127	1035	128
127	1036	152
127	1037	153
128	1038	129
129	1039	154
129	1040	155
130	1041	156
131	1042	132
132	1043	133
132	1044	157
132	1045	158
133	1046	134
133	1047	158
133	1048	159
134	1049	159
135	1050	161
135	1051	162
136	1052	137
136	1053	162
136	1054	163
137	1055	138
137	1056	163
137	1057	164
138	1058	139
138	1059	164
138	1060	165
139	1061	165
139	1062	166
141	1063	142
141	1064	167
141	1065	168
142	1066	143
142	1067	168
142	1068	169
143	1069	169
143	1070	170
144	1071	170
144	1072	171
145	1073	171
145	1074	172
146	1075	172
146	1076	173
147	1077	148
147	1078	173
148	1079	149
148	1080	175
149	1081	150
149	1082	175
149	1083	176
150	1084	151
151	1085	152
151	1086	177
151	1087	178
152	1088	153
152	1089	179
153	1090	154
153	1091	180
154	1092	180
155	1093	156
155	1094	181
155	1095	182
157	1096	158
158	1097	159
158	1098	184
159	1099	160
160	1100	187
161	1101	188
161	1102	189
162	1103	189
163	1104	164
163	1105	190
163	1106	191
164	1107	191
165	1108	193
166	1109	167
166	1110	193
166	1111	194
168	1112	169
168	1113	196
169	1114	196
169	1115	197
170	1116	171
171	1117	198
171	1118	199
172	1119	173
172	1120	199
172	1121	200
173	1122	174
173	1123	201
174	1124	175
174	1125	201
175	1126	202
175	1127	203
176	1128	204
177	1129	178
178	1130	179
178	1131	205
179	1132	180
179	1133	206
180	1134	207
180	1135	208
182	1136	183
183	1137	184
183	1138	211
184	1139	185
184	1140	212
185	1141	186
185	1142	212
186	1143	187
186	1144	214
188	1145	216
188	1146	217
189	1147	190
189	1148	217
189	1149	218
190	1150	218
192	1151	220
193	1152	194
193	1153	221
194	1154	195
194	1155	223
195	1156	196
195	1157	223
197	1158	226
198	1159	199
198	1160	227
199	1161	227
199	1162	228
200	1163	228
201	1164	230
202	1165	203
202	1166	230
202	1167	231
203	1168	232
204	1169	205
204	1170	232
204	1171	233
205	1172	206
205	1173	233
205	1174	234
206	1175	234
207	1176	208
207	1177	236
208	1178	236
209	1179	237
210	1180	211
211	1181	212
211	1182	240
212	1183	213
212	1184	240
214	1185	242
215	1186	243
215	1187	244
216	1188	217
216	1189	245
217	1190	218
217	1191	246
218	1192	219
218	1193	246
218	1194	247
220	1195	221
220	1196	249
221	1197	222
221	1198	249
221	1199	250
222	1200	223
222	1201	250
222	1202	251
223	1203	224
224	1204	252
224	1205	253
225	1206	253
225	1207	254
226	1208	227
226	1209	254
226	1210	255
227	1211	228
228	1212	256
229	1213	230
230	1214	258
230	1215	259
231	1216	259
232	1217	233
232	1218	260
232	1219	261
233	1220	261
233	1221	262
234	1222	235
234	1223	263
235	1224	263
236	1225	265
237	1226	265
237	1227	266
238	1228	239
238	1229	267
239	1230	240
239	1231	267
240	1232	241
240	1233	269
241	1234	242
241	1235	269
241	1236	270
242	1237	270
242	1238	271
243	1239	244
243	1240	271
243	1241	272
244	1242	272
245	1243	273
247	1244	248
247	1245	275
247	1246	276
248	1247	277
249	1248	250
250	1249	251
250	1250	278
250	1251	279
251	1252	279
251	1253	280
252	1254	280
252	1255	281
253	1256	254
253	1257	282
254	1258	255
254	1259	282
254	1260	283
255	1261	283
256	1262	257
256	1263	284
257	1264	285
258	1265	259
259	1266	286
259	1267	287
260	1268	261
260	1269	287
261	1270	262
261	1271	288
262	1272	263
262	1273	289
262	1274	290
263	1275	264
263	1276	291
264	1277	291
265	1278	292
265	1279	293
266	1280	267
266	1281	293
266	1282	294
267	1283	294
267	1284	295
268	1285	269
268	1286	295
268	1287	296
269	1288	270
269	1289	296
270	1290	271
270	1291	297
270	1292	298
271	1293	272
271	1294	298
273	1295	301
274	1296	275
274	1297	302
276	1298	277
276	1299	304
278	1300	305
278	1301	306
280	1302	281
280	1303	307
280	1304	308
281	1305	282
282	1306	283
282	1307	310
283	1308	284
283	1309	310
283	1310	311
285	1311	312
285	1312	313
286	1313	287
286	1314	314
287	1315	288
287	1316	315
288	1317	289
288	1318	317
289	1319	290
289	1320	317
289	1321	318
290	1322	319
291	1323	319
291	1324	320
292	1325	293
292	1326	320
292	1327	321
293	1328	294
293	1329	321
293	1330	322
294	1331	322
294	1332	323
295	1333	296
295	1334	323
295	1335	324
296	1336	324
297	1337	298
297	1338	325
298	1339	326
298	1340	327
299	1341	328
300	1342	330
301	1343	330
301	1344	331
302	1345	303
302	1346	331
302	1347	332
303	1348	304
303	1349	332
303	1350	333
304	1351	305
304	1352	333
304	1353	334
305	1354	306
305	1355	334
305	1356	335
306	1357	307
307	1358	308
307	1359	337
308	1360	309
309	1361	310
309	1362	338
309	1363	339
310	1364	340
311	1365	312
311	1366	340
312	1367	313
312	1368	341
313	1369	314
313	1370	343
314	1371	344
316	1372	345
316	1373	346
317	1374	346
318	1375	319
318	1376	348
319	1377	320
320	1378	321
321	1379	322
321	1380	350
321	1381	351
322	1382	323
322	1383	352
323	1384	353
324	1385	353
324	1386	354
325	1387	354
326	1388	327
326	1389	355
326	1390	356
327	1391	356
327	1392	357
328	1393	357
328	1394	358
329	1395	358
330	1396	359
331	1397	361
332	1398	333
333	1399	334
333	1400	363
334	1401	363
334	1402	364
335	1403	336
335	1404	365
336	1405	337
336	1406	365
336	1407	366
338	1408	339
339	1409	340
340	1410	369
342	1411	370
343	1412	344
343	1413	372
344	1414	372
344	1415	373
345	1416	346
345	1417	374
346	1418	347
346	1419	375
347	1420	376
348	1421	376
349	1422	350
349	1423	377
349	1424	378
350	1425	351
350	1426	379
351	1427	379
352	1428	353
352	1429	380
352	1430	381
353	1431	354
353	1432	381
353	1433	382
354	1434	382
355	1435	383
356	1436	357
356	1437	384
356	1438	385
357	1439	358
357	1440	385
357	1441	386
358	1442	386
359	1443	360
359	1444	389
360	1445	361
360	1446	389
360	1447	390
361	1448	362
361	1449	390
362	1450	391
363	1451	364
363	1452	393
364	1453	393
365	1454	394
366	1455	395
366	1456	396
367	1457	368
367	1458	396
367	1459	397
370	1460	400
370	1461	401
371	1462	372
372	1463	373
374	1464	375
374	1465	404
374	1466	405
375	1467	406
376	1468	406
376	1469	407
377	1470	378
377	1471	408
378	1472	379
378	1473	408
379	1474	380
379	1475	410
380	1476	410
380	1477	411
381	1478	382
381	1479	411
381	1480	412
382	1481	412
382	1482	413
383	1483	384
383	1484	414
384	1485	385
384	1486	414
385	1487	386
385	1488	416
386	1489	416
386	1490	417
387	1491	417
388	1492	389
388	1493	419
389	1494	420
390	1495	391
390	1496	420
391	1497	392
391	1498	421
391	1499	422
392	1500	393
392	1501	422
393	1502	394
393	1503	423
393	1504	424
394	1505	395
394	1506	424
394	1507	425
395	1508	396
395	1509	425
395	1510	426
396	1511	397
396	1512	426
396	1513	427
397	1514	398
397	1515	428
398	1516	429
399	1517	400
399	1518	429
399	1519	430
400	1520	401
400	1521	430
400	1522	431
401	1523	402
401	1524	431
401	1525	432
402	1526	433
403	1527	433
403	1528	434
404	1529	435
406	1530	436
406	1531	437
407	1532	408
407	1533	438
408	1534	439
409	1535	439
410	1536	440
410	1537	441
411	1538	412
411	1539	441
411	1540	442
412	1541	413
412	1542	442
413	1543	443
413	1544	444
414	1545	415
414	1546	445
415	1547	416
415	1548	445
415	1549	446
417	1550	418
417	1551	448
420	1552	421
420	1553	449
421	1554	422
421	1555	451
424	1556	425
424	1557	452
424	1558	453
425	1559	426
425	1560	453
425	1561	454
427	1562	428
428	1563	429
428	1564	456
429	1565	458
430	1566	431
430	1567	458
430	1568	459
431	1569	432
432	1570	460
433	1571	434
433	1572	461
433	1573	462
434	1574	462
434	1575	463
435	1576	464
436	1577	437
436	1578	464
436	1579	465
437	1580	465
437	1581	466
438	1582	466
439	1583	440
439	1584	467
439	1585	468
442	1586	470
442	1587	471
443	1588	471
443	1589	472
444	1590	445
444	1591	472
445	1592	474
446	1593	475
447	1594	475
449	1595	477
449	1596	478
450	1597	451
452	1598	453
452	1599	481
452	1600	482
453	1601	483
454	1602	455
454	1603	483
455	1604	456
455	1605	484
456	1606	457
457	1607	458
457	1608	486
458	1609	459
458	1610	488
459	1611	460
459	1612	488
460	1613	461
461	1614	491
462	1615	463
462	1616	491
462	1617	492
463	1618	492
463	1619	493
464	1620	465
464	1621	493
464	1622	494
465	1623	466
465	1624	495
467	1625	496
467	1626	497
468	1627	497
468	1628	498
469	1629	499
471	1630	472
471	1631	501
472	1632	473
473	1633	502
473	1634	503
474	1635	475
474	1636	503
475	1637	476
475	1638	504
476	1639	505
476	1640	506
478	1641	479
479	1642	480
479	1643	508
479	1644	509
480	1645	481
480	1646	509
481	1647	510
482	1648	511
482	1649	512
483	1650	484
483	1651	512
484	1652	513
484	1653	514
485	1654	515
486	1655	516
487	1656	517
488	1657	489
488	1658	517
488	1659	518
489	1660	490
489	1661	518
490	1662	491
490	1663	520
491	1664	520
492	1665	493
492	1666	521
492	1667	522
493	1668	522
493	1669	523
494	1670	495
495	1671	496
495	1672	524
496	1673	497
496	1674	525
498	1675	527
499	1676	500
499	1677	529
500	1678	501
500	1679	530
501	1680	502
501	1681	530
501	1682	531
502	1683	531
503	1684	533
504	1685	534
505	1686	506
505	1687	534
505	1688	535
506	1689	535
507	1690	508
507	1691	536
508	1692	536
509	1693	510
509	1694	537
509	1695	538
510	1696	511
510	1697	538
511	1698	539
512	1699	539
512	1700	540
513	1701	514
513	1702	540
514	1703	515
514	1704	541
514	1705	542
515	1706	516
515	1707	542
516	1708	517
517	1709	518
517	1710	544
517	1711	545
518	1712	545
518	1713	546
519	1714	520
519	1715	546
519	1716	547
520	1717	547
520	1718	548
521	1719	548
521	1720	549
522	1721	549
523	1722	550
523	1723	551
524	1724	551
524	1725	552
525	1726	526
525	1727	552
526	1728	527
526	1729	553
527	1730	528
527	1731	554
528	1732	529
528	1733	556
529	1734	530
529	1735	556
529	1736	557
530	1737	558
531	1738	558
532	1739	533
533	1740	534
533	1741	560
534	1742	535
534	1743	561
534	1744	562
535	1745	562
536	1746	537
536	1747	563
536	1748	564
537	1749	565
538	1750	565
538	1751	566
539	1752	540
540	1753	541
540	1754	568
541	1755	570
542	1756	543
544	1757	572
544	1758	573
545	1759	573
546	1760	547
546	1761	575
547	1762	548
547	1763	576
548	1764	549
548	1765	577
549	1766	550
549	1767	577
550	1768	551
551	1769	552
551	1770	579
552	1771	581
553	1772	581
553	1773	582
554	1774	582
554	1775	583
555	1776	556
556	1777	557
556	1778	584
557	1779	586
558	1780	559
558	1781	586
558	1782	587
559	1783	560
559	1784	587
560	1785	561
560	1786	589
561	1787	590
562	1788	591
563	1789	564
563	1790	592
564	1791	565
564	1792	592
564	1793	593
565	1794	593
566	1795	567
566	1796	594
567	1797	568
567	1798	595
567	1799	596
568	1800	569
568	1801	596
568	1802	597
569	1803	570
569	1804	597
571	1805	572
572	1806	573
572	1807	600
573	1808	601
573	1809	602
574	1810	575
575	1811	576
575	1812	603
576	1813	577
576	1814	604
576	1815	605
577	1816	578
577	1817	605
577	1818	606
578	1819	579
579	1820	607
580	1821	581
580	1822	609
582	1823	583
582	1824	610
582	1825	611
583	1826	584
585	1827	586
585	1828	614
586	1829	587
586	1830	614
586	1831	615
587	1832	588
587	1833	615
588	1834	589
588	1835	617
589	1836	590
590	1837	591
590	1838	618
590	1839	619
591	1840	619
592	1841	593
592	1842	620
593	1843	594
593	1844	620
594	1845	595
594	1846	621
594	1847	622
595	1848	596
595	1849	623
596	1850	597
596	1851	623
597	1852	598
598	1853	599
598	1854	625
599	1855	626
599	1856	627
600	1857	601
600	1858	627
602	1859	629
602	1860	630
603	1861	604
604	1862	605
604	1863	631
604	1864	632
605	1865	606
605	1866	632
605	1867	633
606	1868	607
606	1869	633
607	1870	634
607	1871	635
608	1872	609
608	1873	636
609	1874	610
609	1875	637
610	1876	611
610	1877	638
611	1878	612
612	1879	613
612	1880	639
613	1881	640
614	1882	615
615	1883	616
615	1884	642
616	1885	617
616	1886	643
617	1887	645
618	1888	619
618	1889	645
618	1890	646
620	1891	621
620	1892	647
621	1893	622
621	1894	647
622	1895	623
622	1896	648
622	1897	649
623	1898	624
623	1899	649
623	1900	650
624	1901	625
624	1902	650
626	1903	627
626	1904	652
626	1905	653
627	1906	628
627	1907	654
628	1908	629
628	1909	655
629	1910	655
629	1911	656
630	1912	631
630	1913	656
631	1914	632
631	1915	657
631	1916	658
632	1917	658
633	1918	634
633	1919	660
634	1920	660
634	1921	661
635	1922	636
635	1923	661
635	1924	662
636	1925	637
636	1926	662
636	1927	663
637	1928	638
637	1929	664
638	1930	639
638	1931	664
639	1932	640
640	1933	667
641	1934	642
641	1935	667
642	1936	668
642	1937	669
643	1938	670
644	1939	670
644	1940	671
645	1941	672
647	1942	648
649	1943	650
649	1944	674
650	1945	651
650	1946	676
651	1947	652
652	1948	653
652	1949	677
652	1950	678
653	1951	678
653	1952	679
654	1953	655
655	1954	656
656	1955	681
657	1956	682
657	1957	683
658	1958	683
658	1959	684
659	1960	660
659	1961	685
660	1962	661
661	1963	687
662	1964	663
662	1965	688
663	1966	688
664	1967	690
665	1968	690
666	1969	667
666	1970	691
666	1971	692
667	1972	693
668	1973	669
669	1974	670
669	1975	694
670	1976	696
671	1977	696
671	1978	697
672	1979	697
673	1980	674
673	1981	698
674	1982	675
675	1983	676
675	1984	700
676	1985	700
676	1986	701
677	1987	678
677	1988	701
677	1989	702
678	1990	703
679	1991	680
680	1992	681
680	1993	704
680	1994	705
681	1995	705
682	1996	683
682	1997	706
682	1998	707
683	1999	707
684	2000	685
684	2001	708
684	2002	709
685	2003	686
685	2004	709
686	2005	687
686	2006	710
686	2007	711
687	2008	688
687	2009	712
688	2010	689
688	2011	713
689	2012	713
690	2013	691
690	2014	715
691	2015	692
692	2016	693
692	2017	716
693	2018	694
693	2019	717
693	2020	718
695	2021	719
696	2022	720
696	2023	721
698	2024	699
699	2025	722
701	2026	723
701	2027	724
702	2028	703
702	2029	724
703	2030	704
703	2031	725
703	2032	726
704	2033	705
704	2034	726
705	2035	727
705	2036	728
706	2037	707
706	2038	728
706	2039	729
707	2040	729
707	2041	730
708	2042	709
708	2043	730
710	2044	711
710	2045	732
710	2046	733
711	2047	712
711	2048	733
712	2049	734
712	2050	735
713	2051	714
713	2052	735
714	2053	715
714	2054	736
714	2055	737
715	2056	716
715	2057	737
715	2058	738
716	2059	738
716	2060	739
717	2061	718
718	2062	719
718	2063	740
718	2064	741
719	2065	741
719	2066	742
720	2067	721
720	2068	742
722	2069	723
724	2070	725
724	2071	744
725	2072	726
725	2073	745
726	2074	727
727	2075	728
727	2076	747
728	2077	729
728	2078	749
729	2079	749
729	2080	750
730	2081	751
731	2082	732
732	2083	733
732	2084	753
733	2085	734
733	2086	753
734	2087	755
735	2088	755
735	2089	756
736	2090	756
737	2091	738
737	2092	758
738	2093	758
739	2094	759
739	2095	760
740	2096	741
740	2097	760
740	2098	761
743	2099	744
744	2100	763
745	2101	746
745	2102	763
745	2103	764
746	2104	765
747	2105	748
748	2106	749
748	2107	767
749	2108	767
749	2109	768
750	2110	751
750	2111	768
751	2112	752
752	2113	753
752	2114	770
753	2115	771
753	2116	772
754	2117	772
754	2118	773
755	2119	756
756	2120	757
756	2121	774
756	2122	775
757	2123	758
757	2124	775
758	2125	776
759	2126	760
759	2127	777
760	2128	761
760	2129	778
760	2130	779
761	2131	762
761	2132	779
763	2133	764
763	2134	780
764	2135	780
764	2136	781
765	2137	781
765	2138	782
766	2139	767
766	2140	782
766	2141	783
767	2142	768
767	2143	784
768	2144	769
768	2145	784
768	2146	785
769	2147	770
770	2148	787
771	2149	772
771	2150	787
771	2151	788
772	2152	788
772	2153	789
773	2154	774
773	2155	789
773	2156	790
774	2157	790
774	2158	791
775	2159	776
775	2160	792
776	2161	792
777	2162	794
778	2163	794
781	2164	782
782	2165	783
782	2166	795
783	2167	784
783	2168	795
783	2169	796
784	2170	785
785	2171	786
785	2172	797
785	2173	798
786	2174	787
786	2175	798
786	2176	799
787	2177	800
788	2178	789
789	2179	790
790	2180	802
790	2181	803
791	2182	803
792	2183	793
792	2184	804
793	2185	794
793	2186	805
796	2187	797
797	2188	806
798	2189	806
798	2190	807
799	2191	800
799	2192	808
800	2193	801
801	2194	809
801	2195	810
802	2196	803
802	2197	811
803	2198	804
804	2199	805
806	2200	807
807	2201	808
809	2202	810
810	2203	811
812	1	815
813	8	829
814	9	831
815	2	817
818	11	834
819	12	837
821	13	840
822	13	839
823	17	848
824	18	850
825	8	828
826	18	849
828	9	830
830	10	832
831	21	855
832	11	833
833	12	836
834	22	856
835	23	860
836	13	838
837	24	861
838	14	841
842	25	862
844	26	863
848	32	872
851	20	852
853	35	875
854	36	879
855	37	882
856	37	881
857	38	885
859	38	884
861	40	889
865	43	894
867	45	898
869	31	871
870	47	900
872	49	905
873	51	909
874	36	877
876	53	911
877	37	880
879	54	914
880	38	883
881	54	913
883	39	886
884	55	915
886	40	888
887	56	917
889	58	921
890	59	924
891	43	893
893	44	896
895	61	927
896	45	897
898	62	928
900	67	935
901	68	937
905	69	939
906	70	941
907	70	940
909	71	942
913	74	946
917	76	949
918	77	951
919	78	954
921	79	956
924	80	958
926	81	960
928	82	962
929	64	930
931	84	966
932	85	969
933	86	970
935	89	976
936	69	938
937	91	981
942	93	984
945	75	947
946	96	991
947	76	948
948	77	950
950	78	953
953	79	955
954	101	996
955	80	957
956	102	999
957	81	959
960	103	1000
961	104	1003
962	104	1002
963	84	965
964	105	1005
965	85	968
967	107	1007
969	108	1010
971	110	1013
973	89	975
975	90	978
977	113	1017
978	91	980
980	92	982
982	93	983
983	94	985
984	116	1021
985	95	988
986	117	1022
988	96	990
992	120	1025
993	122	1030
994	123	1032
995	102	997
1001	105	1004
1002	127	1036
1006	129	1040
1010	132	1045
1011	132	1044
1012	111	1014
1013	135	1050
1014	112	1015
1016	138	1059
1017	139	1062
1019	139	1061
1021	141	1064
1022	142	1067
1023	143	1070
1024	121	1026
1025	146	1076
1026	122	1028
1027	146	1075
1028	123	1031
1029	147	1078
1030	148	1080
1031	124	1033
1032	149	1083
1033	125	1034
1035	128	1038
1037	153	1091
1039	154	1092
1040	155	1095
1042	132	1043
1043	133	1046
1047	158	1098
1050	161	1101
1052	137	1055
1053	162	1103
1054	163	1106
1055	138	1058
1056	163	1105
1059	164	1107
1060	165	1108
1062	166	1111
1063	142	1066
1065	168	1113
1068	169	1115
1069	169	1114
1072	171	1118
1073	171	1117
1074	172	1121
1075	172	1120
1076	173	1123
1077	148	1079
1079	149	1081
1080	175	1127
1081	150	1084
1082	175	1126
1083	176	1128
1084	151	1085
1085	152	1088
1088	153	1090
1091	180	1135
1092	180	1134
1096	158	1097
1097	159	1099
1101	188	1145
1102	189	1149
1103	189	1148
1105	190	1150
1110	193	1153
1111	194	1155
1115	197	1158
1118	199	1162
1119	173	1122
1120	199	1161
1122	174	1124
1123	201	1164
1126	202	1166
1127	203	1168
1128	204	1171
1129	178	1130
1130	179	1132
1131	205	1173
1133	206	1175
1136	183	1137
1137	184	1139
1138	211	1182
1139	185	1141
1141	186	1143
1142	212	1184
1146	217	1191
1149	218	1194
1150	218	1193
1152	194	1154
1153	221	1198
1154	195	1156
1158	226	1210
1163	228	1212
1164	230	1215
1166	230	1214
1168	232	1219
1169	205	1172
1170	232	1218
1171	233	1221
1173	233	1220
1174	234	1223
1177	236	1225
1179	237	1226
1180	211	1181
1181	212	1183
1182	240	1233
1185	242	1237
1186	243	1240
1188	217	1190
1190	218	1192
1194	247	1246
1195	221	1197
1197	222	1200
1199	250	1251
1200	223	1203
1201	250	1250
1202	251	1253
1204	252	1254
1205	253	1257
1207	254	1260
1208	227	1211
1209	254	1259
1212	256	1263
1215	259	1267
1216	259	1266
1218	260	1269
1220	261	1271
1221	262	1274
1223	263	1276
1225	265	1279
1226	265	1278
1227	266	1282
1228	239	1230
1229	267	1284
1230	240	1232
1231	267	1283
1232	241	1234
1235	269	1289
1236	270	1292
1237	270	1291
1240	271	1294
1246	276	1299
1248	250	1249
1250	278	1300
1253	280	1304
1254	280	1303
1256	254	1258
1257	282	1307
1260	283	1310
1261	283	1309
1264	285	1311
1266	286	1314
1268	261	1270
1269	287	1316
1270	262	1272
1272	263	1275
1273	289	1320
1274	290	1322
1276	291	1324
1277	291	1323
1278	292	1326
1279	293	1330
1281	293	1329
1282	294	1332
1283	294	1331
1284	295	1335
1285	269	1288
1286	295	1334
1288	270	1290
1289	296	1336
1290	271	1293
1291	297	1338
1292	298	1340
1294	298	1339
1295	301	1344
1297	302	1347
1299	304	1353
1300	305	1355
1302	281	1305
1305	282	1306
1306	283	1308
1307	310	1364
1311	312	1368
1312	313	1370
1313	287	1315
1315	288	1317
1317	289	1319
1320	317	1374
1321	318	1376
1325	293	1328
1327	321	1381
1329	321	1380
1330	322	1383
1332	323	1384
1335	324	1386
1336	324	1385
1338	325	1387
1339	326	1389
1340	327	1392
1341	328	1394
1343	330	1396
1344	331	1397
1345	303	1348
1348	304	1351
1350	333	1400
1351	305	1354
1353	334	1402
1354	306	1357
1355	334	1401
1356	335	1404
1357	307	1358
1358	308	1360
1360	309	1361
1364	340	1410
1365	312	1367
1367	313	1369
1370	343	1413
1371	344	1415
1373	346	1419
1375	319	1377
1377	320	1378
1378	321	1379
1379	322	1382
1383	352	1430
1384	353	1433
1385	353	1432
1387	354	1434
1389	355	1435
1390	356	1438
1391	356	1437
1392	357	1441
1393	357	1440
1395	358	1442
1398	333	1399
1400	363	1452
1403	336	1405
1406	365	1454
1407	366	1456
1408	339	1409
1411	370	1460
1416	346	1418
1417	374	1466
1419	375	1467
1420	376	1469
1421	376	1468
1422	350	1425
1426	379	1475
1428	353	1431
1429	380	1476
1430	381	1480
1432	381	1479
1433	382	1482
1434	382	1481
1436	357	1439
1437	384	1486
1438	385	1488
1441	386	1490
1442	386	1489
1443	360	1445
1444	389	1494
1445	361	1448
1449	390	1496
1450	391	1498
1452	393	1504
1453	393	1503
1454	394	1506
1455	395	1509
1456	396	1513
1458	396	1512
1459	397	1515
1460	400	1521
1461	401	1525
1462	372	1463
1467	406	1531
1468	406	1530
1469	407	1533
1470	378	1472
1471	408	1534
1472	379	1474
1475	410	1537
1476	410	1536
1477	411	1540
1479	411	1539
1481	412	1542
1482	413	1544
1483	384	1485
1484	414	1546
1485	385	1487
1490	417	1551
1495	391	1497
1496	420	1553
1497	392	1500
1500	393	1502
1502	394	1505
1504	424	1558
1505	395	1508
1506	424	1557
1507	425	1561
1508	396	1511
1509	425	1560
1511	397	1514
1516	429	1565
1517	400	1520
1519	430	1568
1520	401	1523
1521	430	1567
1526	433	1573
1527	433	1572
1528	434	1575
1529	435	1576
1530	436	1578
1531	437	1581
1534	439	1585
1535	439	1584
1538	412	1541
1540	442	1587
1542	442	1586
1543	443	1588
1545	415	1547
1546	445	1592
1549	446	1593
1552	421	1554
1553	449	1595
1556	425	1559
1557	452	1599
1558	453	1601
1562	428	1563
1565	458	1610
1566	431	1569
1573	462	1617
1574	462	1616
1575	463	1619
1576	464	1622
1578	464	1621
1579	465	1624
1584	467	1625
1585	468	1628
1587	471	1631
1594	475	1638
1599	481	1647
1600	482	1649
1602	455	1604
1603	483	1651
1604	456	1606
1605	484	1652
1606	457	1607
1607	458	1609
1609	459	1611
1610	488	1659
1611	460	1613
1612	488	1658
1616	491	1664
1617	492	1667
1618	492	1666
1619	493	1669
1620	465	1623
1621	493	1668
1625	496	1674
1629	499	1677
1630	472	1632
1631	501	1682
1633	502	1683
1634	503	1684
1635	475	1637
1639	505	1687
1641	479	1642
1642	480	1645
1643	508	1692
1644	509	1695
1646	509	1694
1647	510	1697
1649	512	1700
1651	512	1699
1652	513	1702
1653	514	1705
1656	517	1711
1657	489	1660
1658	517	1710
1659	518	1713
1660	490	1662
1661	518	1712
1663	520	1718
1664	520	1717
1666	521	1719
1668	522	1721
1669	523	1723
1670	495	1671
1671	496	1673
1672	524	1724
1674	525	1727
1675	527	1731
1676	500	1678
1677	529	1736
1678	501	1680
1679	530	1737
1683	531	1738
1685	534	1744
1687	534	1743
1689	535	1745
1691	536	1748
1692	536	1747
1693	510	1696
1695	538	1751
1697	538	1750
1701	514	1703
1702	540	1754
1703	515	1706
1706	516	1708
1708	517	1709
1710	544	1757
1712	545	1759
1713	546	1761
1716	547	1763
1718	548	1765
1721	549	1767
1724	551	1770
1725	552	1771
1726	526	1728
1728	527	1730
1729	553	1772
1730	528	1732
1731	554	1774
1732	529	1734
1735	556	1778
1736	557	1779
1737	558	1782
1738	558	1781
1739	533	1740
1740	534	1742
1744	562	1788
1748	564	1793
1750	565	1794
1752	540	1753
1754	568	1801
1757	572	1807
1758	573	1809
1759	573	1808
1760	547	1762
1762	548	1764
1763	576	1815
1764	549	1766
1765	577	1818
1766	550	1768
1767	577	1817
1768	551	1769
1770	579	1820
1773	582	1825
1774	582	1824
1776	556	1777
1779	586	1831
1780	559	1783
1781	586	1830
1783	560	1785
1784	587	1833
1787	590	1839
1789	564	1791
1790	592	1842
1794	593	1844
1795	567	1797
1796	594	1846
1797	568	1800
1800	569	1803
1801	596	1851
1805	572	1806
1807	600	1858
1809	602	1860
1810	575	1811
1811	576	1813
1813	577	1816
1814	604	1863
1815	605	1867
1816	578	1819
1817	605	1866
1820	607	1870
1822	609	1875
1823	583	1826
1827	586	1829
1829	587	1832
1832	588	1834
1833	615	1884
1834	589	1836
1835	617	1887
1836	590	1837
1838	618	1889
1841	593	1843
1842	620	1892
1843	594	1845
1845	595	1848
1846	621	1894
1847	622	1897
1848	596	1850
1849	623	1900
1850	597	1852
1851	623	1899
1852	598	1853
1855	626	1904
1856	627	1907
1859	629	1910
1861	604	1862
1862	605	1865
1863	631	1915
1865	606	1868
1866	632	1917
1867	633	1919
1870	634	1920
1871	635	1924
1872	609	1874
1873	636	1927
1874	610	1876
1875	637	1929
1876	611	1878
1878	612	1879
1882	615	1883
1883	616	1885
1884	642	1936
1887	645	1941
1891	621	1893
1893	622	1895
1895	623	1898
1898	624	1901
1899	649	1944
1900	650	1946
1903	627	1906
1904	652	1949
1905	653	1952
1906	628	1908
1912	631	1914
1913	656	1955
1915	657	1956
1916	658	1959
1917	658	1958
1921	661	1963
1922	636	1925
1924	662	1965
1925	637	1928
1928	638	1930
1929	664	1967
1930	639	1932
1933	667	1972
1938	670	1976
1940	671	1978
1943	650	1945
1945	651	1947
1946	676	1986
1947	652	1948
1949	677	1988
1950	678	1990
1953	655	1954
1955	681	1995
1956	682	1997
1958	683	1999
1959	684	2002
1960	660	1962
1963	687	2009
1965	688	2011
1967	690	2014
1972	693	2020
1973	669	1974
1976	696	2023
1977	696	2022
1980	674	1982
1982	675	1983
1986	701	2027
1988	701	2026
1990	703	2032
1991	680	1992
1993	704	2034
1994	705	2036
1995	705	2035
1997	706	2038
1998	707	2041
1999	707	2040
2000	685	2003
2001	708	2043
2003	686	2005
2005	687	2008
2006	710	2045
2008	688	2010
2009	712	2050
2012	713	2052
2013	691	2015
2014	715	2058
2015	692	2016
2016	693	2018
2017	716	2059
2020	718	2064
2021	719	2065
2022	720	2068
2028	703	2030
2029	724	2071
2030	704	2033
2031	725	2073
2035	727	2076
2036	728	2078
2039	729	2080
2040	729	2079
2041	730	2081
2044	711	2047
2048	733	2086
2050	735	2089
2051	714	2053
2052	735	2088
2053	715	2056
2054	736	2090
2055	737	2092
2059	738	2093
2060	739	2095
2061	718	2062
2063	740	2097
2070	725	2072
2072	726	2074
2073	745	2102
2074	727	2075
2075	728	2077
2078	749	2109
2079	749	2108
2082	732	2083
2083	733	2085
2084	753	2116
2086	753	2115
2089	756	2122
2090	756	2121
2093	758	2125
2094	759	2127
2095	760	2130
2097	760	2129
2100	763	2134
2103	764	2136
2104	765	2138
2105	748	2106
2107	767	2143
2109	768	2146
2110	751	2112
2111	768	2145
2112	752	2113
2115	771	2150
2116	772	2153
2117	772	2152
2118	773	2156
2119	756	2120
2120	757	2123
2121	774	2157
2122	775	2160
2125	776	2161
2126	760	2128
2128	761	2131
2129	778	2163
2138	782	2166
2139	767	2142
2141	783	2169
2142	768	2144
2144	769	2147
2146	785	2173
2148	787	2177
2156	790	2181
2157	790	2180
2161	792	2184
2164	782	2165
2165	783	2167
2167	784	2170
2170	785	2171
2171	786	2174
2173	798	2190
2175	798	2189
2176	799	2192
2178	789	2179
2183	793	2185
2191	800	2193
2196	803	2198
2198	804	2199
2200	807	2201
2202	810	2203
