-26.0086	13.8435
-25.5017	14.7195
-24.9954	15.6021
-26.0086	13.8435
-25.5098	13.0035
-24.9967	12.125
-26.0086	13.8435
-24.9902	13.8455
-23.9951	13.8433
-24.0125	17.3207
-22.9853	17.3328
-21.9904	17.3129
-22.9918	19.0496
-22.4882	18.1812
-21.9904	17.3129
-22.9918	19.0496
-21.9878	19.0501
-21.0089	19.0574
-29.005	5.18351
-28.4972	6.05646
-27.9909	6.91356
-29.005	5.18351
-28.0016	5.18865
-27.0067	5.1856
-27.9909	6.91356
-27.4962	7.80137
-27.0071	8.65574
-27.9909	6.91356
-27.4982	6.0679
-27.0067	5.1856
-27.0071	8.65574
-26.5107	9.53131
-25.9979	10.4072
-27.0071	8.65574
-25.998	8.67451
-25.0067	8.64994
-25.9979	10.4072
-25.4858	11.2567
-24.9967	12.125
-25.9979	10.4072
-25.0094	10.3863
-24.0062	10.3936
-24.9967	12.125
-24.4988	11.2584
-24.0062	10.3936
-24.9967	12.125
-23.9954	12.1157
-22.9883	12.1201
-23.9951	13.8433
-23.4862	14.7275
-22.9909	15.5899
-23.9951	13.8433
-23.4931	13.0017
-22.9883	12.1201
-21.9904	17.3129
-21.5096	16.4429
-20.9931	15.5898
-21.9904	17.3129
-20.9953	17.3189
-20.0066	17.3348
-21.0089	19.0574
-20.0108	19.0458
-19.0089	19.0569
-19.9962	20.7839
-19.4936	19.9242
-19.0089	19.0569
-19.9962	20.7839
-18.9995	20.7788
-17.9988	20.7984
-18.9855	22.5079
-18.5099	21.6407
-17.9988	20.7984
-29.0003	1.73944
-28.5121	0.880632
-27.9877	0.00773217
-29.0003	1.73944
-27.9944	1.7425
-26.9879	1.73954
-27.9896	3.46083
-26.9859	3.45963
-25.9959	3.46815
-27.0067	5.1856
-26.4935	6.05332
-26.0013	6.92992
-26.0013	6.92992
-25.4863	7.78053
-25.0067	8.64994
-26.0013	6.92992
-25.5108	6.05481
-25.0091	5.20711
-25.0067	8.64994
-24.4898	7.80829
-23.989	6.93044
-25.0067	8.64994
-23.9931	8.65869
-22.9944	8.66438
-24.0062	10.3936
-23.4942	11.2578
-22.9883	12.1201
-24.0062	10.3936
-23.4935	9.54018
-22.9944	8.66438
-24.0062	10.3936
-22.9983	10.4058
-21.9919	10.39
-22.9883	12.1201
-22.4887	12.9893
-22.0134	13.8694
-22.9883	12.1201
-22.0094	12.1291
-21.0091	12.129
-22.0134	13.8694
-21.5128	14.736
-20.9931	15.5898
-22.0134	13.8694
-21.508	12.9861
-21.0091	12.129
-22.0134	13.8694
-20.9929	13.8544
-20.0149	13.8671
-20.9931	15.5898
-20.5029	14.7353
-20.0149	13.8671
-20.9931	15.5898
-20.0088	15.6023
-19.001	15.5766
-20.0066	17.3348
-19.5084	16.4428
-19.001	15.5766
-20.0066	17.3348
-18.9861	17.3163
-18.0103	17.3326
-19.0089	19.0569
-18.4925	19.9137
-17.9988	20.7984
-19.0089	19.0569
-18.5051	18.1912
-18.0103	17.3326
-19.0089	19.0569
-17.9943	19.0384
-17.0113	19.0456
-17.9988	20.7984
-17.4856	19.9116
-17.0113	19.0456
-17.9988	20.7984
-16.9992	20.782
-15.9982	20.7757
-17.0112	22.5315
-16.5127	23.3976
-16.0014	24.2509
-17.0112	22.5315
-15.9855	22.517
-14.9909	22.5168
-16.0014	24.2509
-15.4903	23.3707
-14.9909	22.5168
-28.9888	-1.72866
-28.0113	-1.7299
-27.0027	-1.73012
-26.9879	1.73954
-26.5124	2.59879
-25.9959	3.46815
-26.9879	1.73954
-26.5025	0.875154
-26.0129	0.0140883
-26.9879	1.73954
-25.9894	1.73322
-24.9906	1.72356
-25.9959	3.46815
-25.5118	2.61195
-24.9906	1.72356
-25.9959	3.46815
-24.9912	3.47618
-24.0001	3.47188
-25.0091	5.20711
-24.5069	4.34238
-24.0001	3.47188
-25.0091	5.20711
-24.0126	5.18305
-23.012	5.1902
-23.989	6.93044
-23.4918	6.06149
-23.012	5.1902
-23.989	6.93044
-22.9982	6.9144
-21.994	6.94051
-22.9944	8.66438
-22.5121	9.51774
-21.9919	10.39
-21.9919	10.39
-21.5108	11.2728
-21.0091	12.129
-21.9919	10.39
-21.4868	9.52399
-20.9918	8.65097
-21.0091	12.129
-20.5008	12.9808
-20.0149	13.8671
-21.0091	12.129
-20.5083	11.2622
-20.002	10.4065
-21.0091	12.129
-19.9967	12.1377
-18.9863	12.1336
-20.0149	13.8671
-19.5078	14.7332
-19.001	15.5766
-20.0149	13.8671
-19.4942	13.0002
-18.9863	12.1336
-20.0149	13.8671
-18.9882	13.8581
-17.9953	13.8598
-19.001	15.5766
-18.5134	16.45
-18.0103	17.3326
-19.001	15.5766
-18.4946	14.7267
-17.9953	13.8598
-18.0103	17.3326
-17.5085	16.4409
-16.9991	15.583
-18.0103	17.3326
-16.9857	17.3282
-16.0037	17.321
-17.0113	19.0456
-16.5046	18.182
-16.0037	17.321
-17.0113	19.0456
-16.0087	19.061
-14.9928	19.0564
-15.9982	20.7757
-15.4973	21.6399
-14.9909	22.5168
-15.9982	20.7757
-15.5096	19.9103
-14.9928	19.0564
-15.9982	20.7757
-14.9923	20.7853
-13.9961	20.7971
-14.9909	22.5168
-14.4868	21.6596
-13.9961	20.7971
-14.9909	22.5168
-14.0041	22.5099
-13.002	22.5043
-14.0022	24.2344
-13.4896	25.1033
-13.0136	25.9779
-14.0022	24.2344
-13.4924	23.3948
-13.002	22.5043
-13.0136	25.9779
-12.51	25.1251
-12.0099	24.2582
-28.9949	-5.19649
-27.992	-5.1846
-26.9968	-5.19536
-27.9876	-3.47003
-27.5124	-2.60083
-27.0027	-1.73012
-27.9876	-3.47003
-27.4857	-4.32573
-26.9968	-5.19536
-27.9876	-3.47003
-26.9883	-3.46884
-25.9873	-3.47654
-27.0027	-1.73012
-26.5014	-0.868397
-26.0129	0.0140883
-27.0027	-1.73012
-26.497	-2.59358
-25.9873	-3.47654
-27.0027	-1.73012
-25.9941	-1.72764
-25.0138	-1.73973
-26.0129	0.0140883
-25.4955	0.869037
-24.9906	1.72356
-26.0129	0.0140883
-24.9905	-0.0052082
-24.0106	0.0143874
-24.9906	1.72356
-24.5075	0.87479
-24.0106	0.0143874
-24.9906	1.72356
-23.9964	1.72165
-23.0091	1.72083
-24.0001	3.47188
-23.4897	2.60827
-23.0091	1.72083
-24.0001	3.47188
-22.9887	3.47583
-22.0036	3.4785
-23.012	5.1902
-22.4881	6.07492
-21.994	6.94051
-20.9918	8.65097
-20.499	9.53023
-20.002	10.4065
-20.9918	8.65097
-20.5005	7.80124
-19.9988	6.92959
-20.9918	8.65097
-20.0028	8.64623
-18.9874	8.66338
-20.002	10.4065
-19.5121	9.5248
-18.9874	8.66338
-18.9863	12.1336
-18.5033	12.9907
-17.9953	13.8598
-18.9863	12.1336
-18.4916	11.2571
-17.9937	10.3964
-18.9863	12.1336
-17.9966	12.1122
-17.0142	12.1227
-17.9953	13.8598
-17.5141	12.9859
-17.0142	12.1227
-17.9953	13.8598
-17.0089	13.862
-16.0072	13.8646
-16.9991	15.583
-16.0105	15.5899
-14.9852	15.5963
-16.0037	17.321
-15.4977	16.4603
-14.9852	15.5963
-16.0037	17.321
-14.9856	17.329
-14.0139	17.328
-14.9928	19.0564
-14.509	18.1968
-14.0139	17.328
-14.9928	19.0564
-14.0105	19.0515
-13.0007	19.0617
-13.9961	20.7971
-13.4851	19.9215
-13.0007	19.0617
-13.002	22.5043
-12.4966	21.6475
-12.0018	20.7912
-12.0099	24.2582
-10.9961	24.255
-10.0114	24.2356
-10.9948	25.99
-10.5086	26.84
-9.99811	27.7136
-10.9948	25.99
-10.4969	25.1141
-10.0114	24.2356
-10.9948	25.99
-10.0055	25.9771
-9.00928	25.9792
-9.99811	27.7136
-8.99548	27.7005
-8.00364	27.7056
-25.9873	-3.47654
-25.505	-4.32293
-25.0122	-5.20279
-25.9873	-3.47654
-24.9974	-3.46966
-24.0016	-3.45657
-25.0138	-1.73973
-24.4981	-0.86499
-24.0106	0.0143874
-25.0138	-1.73973
-24.0113	-1.7441
-23.0049	-1.741
-24.0106	0.0143874
-23.4917	0.866153
-23.0091	1.72083
-23.0091	1.72083
-22.5013	2.60939
-22.0036	3.4785
-23.0091	1.72083
-22.4941	0.861135
-22.0044	-0.00911731
-23.0091	1.72083
-22.0057	1.72125
-20.9977	1.72142
-22.0036	3.4785
-21.4957	4.33733
-21.0122	5.20192
-22.0036	3.4785
-21.4961	2.6052
-20.9977	1.72142
-22.0036	3.4785
-21.0149	3.46958
-20.0017	3.46373
-21.0122	5.20192
-19.989	5.18337
-19.0055	5.20188
-19.9988	6.92959
-19.513	7.78022
-18.9874	8.66338
-19.9988	6.92959
-19.5149	6.05712
-19.0055	5.20188
-19.9988	6.92959
-19.0125	6.9271
-18.0113	6.91539
-18.9874	8.66338
-18.5131	7.79655
-18.0113	6.91539
-17.9937	10.3964
-17.5132	9.51535
-17.0029	8.6699
-17.0142	12.1227
-16.5111	12.9906
-16.0072	13.8646
-17.0142	12.1227
-15.9982	12.1278
-14.9876	12.1197
-16.0072	13.8646
-15.4879	14.7098
-14.9852	15.5963
-16.0072	13.8646
-15.5097	12.9794
-14.9876	12.1197
-16.0072	13.8646
-14.9962	13.8643
-14.0034	13.8507
-14.9852	15.5963
-14.4863	14.7277
-14.0034	13.8507
-14.9852	15.5963
-14.0042	15.5851
-13.0031	15.598
-14.0139	17.328
-13.4899	18.173
-13.0007	19.0617
-14.0139	17.328
-13.4937	16.4615
-13.0031	15.598
-14.0139	17.328
-12.9969	17.3063
-11.9987	17.3323
-13.0007	19.0617
-12.4937	19.9139
-12.0018	20.7912
-12.0018	20.7912
-11.5144	21.6368
-10.9903	22.5257
-10.9903	22.5257
-10.5145	23.388
-10.0114	24.2356
-10.9903	22.5257
-10.5102	21.6462
-9.99162	20.7974
-10.9903	22.5257
-9.99473	22.5242
-8.99611	22.5278
-9.00928	25.9792
-8.50046	25.1178
-8.01168	24.2433
-9.00928	25.9792
-7.99118	25.9837
-6.99631	25.9725
-27.9977	-10.394
-27.5111	-9.53006
-27.0112	-8.64669
-27.9977	-10.394
-27.5059	-11.2563
-26.9954	-12.1298
-27.9977	-10.394
-27.0127	-10.3875
-26.0067	-10.3964
-27.0112	-8.64669
-26.4917	-7.80681
-26.0012	-6.91573
-27.0112	-8.64669
-26.0071	-8.65113
-25.0072	-8.65985
-26.0012	-6.91573
-25.5139	-6.06868
-25.0122	-5.20279
-26.0012	-6.91573
-25.4919	-7.78676
-25.0072	-8.65985
-26.0012	-6.91573
-24.9914	-6.92125
-23.9878	-6.94183
-25.0122	-5.20279
-24.4962	-4.32859
-24.0016	-3.45657
-25.0122	-5.20279
-24.4857	-6.0735
-23.9878	-6.94183
-24.0016	-3.45657
-23.5012	-2.59137
-23.0049	-1.741
-24.0016	-3.45657
-23.4921	-4.3387
-23.0003	-5.18805
-23.0049	-1.741
-22.5098	-2.61048
-21.9898	-3.47108
-22.0044	-0.00911731
-20.9904	0.0126106
-20.0113	0.0149929
-20.9977	1.72142
-19.9972	1.72369
-19.0124	1.71813
-20.0017	3.46373
-19.4863	4.31795
-19.0055	5.20188
-20.0017	3.46373
-19.4965	2.59143
-19.0124	1.71813
-19.0055	5.20188
-17.9871	5.18452
-17.0095	5.1863
-18.0113	6.91539
-17.5095	7.80151
-17.0029	8.6699
-18.0113	6.91539
-16.9936	6.91568
-16.0065	6.92776
-17.0029	8.6699
-16.509	7.78483
-16.0065	6.92776
-17.0029	8.6699
-16.0133	8.66454
-15.0076	8.65635
-15.9999	10.3869
-15.4968	11.2442
-14.9876	12.1197
-15.9999	10.3869
-14.9894	10.3819
-13.9909	10.4061
-14.9876	12.1197
-14.5144	12.9814
-14.0034	13.8507
-14.9876	12.1197
-14.4951	11.2623
-13.9909	10.4061
-14.0034	13.8507
-13.4853	12.9877
-13.0008	12.1191
-14.0034	13.8507
-13.0146	13.8547
-11.9869	13.8612
-13.0031	15.598
-12.5142	16.4689
-11.9987	17.3323
-13.0031	15.598
-12.5073	14.7166
-11.9869	13.8612
-13.0031	15.598
-12.0126	15.5851
-10.9873	15.6017
-11.9987	17.3323
-11.5042	18.1962
-10.9882	19.0417
-11.9987	17.3323
-11.4941	16.4657
-10.9873	15.6017
-11.9987	17.3323
-11.0101	17.3338
-9.98968	17.3225
-10.9882	19.0417
-10.4952	19.9173
-9.99162	20.7974
-8.99611	22.5278
-8.51134	23.3718
-8.01168	24.2433
-8.99611	22.5278
-8.50085	21.6488
-8.00042	20.7772
-8.99611	22.5278
-8.00959	22.5274
-7.00259	22.5309
-8.01168	24.2433
-7.49974	25.1014
-6.99631	25.9725
-8.01168	24.2433
-6.99549	24.2557
-5.9928	24.2364
-6.99631	25.9725
-6.49478	26.8617
-5.99022	27.7001
-6.99631	25.9725
-6.00394	25.995
-4.98938	25.9791
-5.99022	27.7001
-5.50542	28.5789
-4.99266	29.4574
-5.99022	27.7001
-5.49479	26.8576
-4.98938	25.9791
-4.99266	29.4574
-4.48936	28.5701
-4.00377	27.7204
-26.9954	-12.1298
-26.5126	-11.25
-26.0067	-10.3964
-26.0067	-10.3964
-25.4944	-9.51342
-25.0072	-8.65985
-26.0067	-10.3964
-25.0021	-10.3815
-23.9946	-10.4027
-25.0072	-8.65985
-24.4995	-7.78868
-23.9878	-6.94183
-23.9878	-6.94183
-23.5072	-6.05168
-23.0003	-5.18805
-23.9878	-6.94183
-22.9857	-6.93737
-21.985	-6.93939
-23.0003	-5.18805
-22.5114	-4.31707
-21.9898	-3.47108
-23.0003	-5.18805
-22.4859	-6.06161
-21.985	-6.93939
-21.9898	-3.47108
-21.4912	-2.6023
-20.9949	-1.74168
-21.9898	-3.47108
-20.9983	-3.45775
-20.0135	-3.47692
-20.9949	-1.74168
-20.5101	-2.60184
-20.0135	-3.47692
-20.9949	-1.74168
-20.0074	-1.73276
-18.9968	-1.72932
-19.0124	1.71813
-18.5085	0.878205
-18.0005	-0.010042
-18.0093	3.47623
-17.5086	4.32884
-17.0095	5.1863
-18.0093	3.47623
-17.0067	3.47881
-16.0107	3.4584
-17.0095	5.1863
-16.4932	4.33496
-16.0107	3.4584
-16.0065	6.92776
-15.487	7.8022
-15.0076	8.65635
-16.0065	6.92776
-15	6.92028
-14.0052	6.92169
-15.0076	8.65635
-14.5037	7.80516
-14.0052	6.92169
-15.0076	8.65635
-14.0097	8.67384
-12.9911	8.6481
-13.9909	10.4061
-13.0005	10.3807
-11.987	10.388
-13.0008	12.1191
-12.4871	13.003
-11.9869	13.8612
-13.0008	12.1191
-12.4976	11.253
-11.987	10.388
-11.9869	13.8612
-11.505	14.7366
-10.9873	15.6017
-11.9869	13.8612
-11.5003	12.985
-10.9895	12.1132
-10.9873	15.6017
-10.0119	15.5772
-9.00956	15.596
-9.98968	17.3225
-9.50341	16.4523
-9.00956	15.596
-9.98968	17.3225
-9.00998	17.3075
-7.98679	17.3264
-9.01219	19.06
-8.48978	19.904
-8.00042	20.7772
-9.01219	19.06
-8.48507	18.1846
-7.98679	17.3264
-7.00259	22.5309
-6.51413	21.6502
-5.98511	20.7862
-5.9928	24.2364
-5.51039	23.3904
-4.99015	22.5114
-4.98938	25.9791
-4.49578	26.8357
-4.00377	27.7204
-4.98938	25.9791
-4.50571	25.1229
-3.98569	24.237
-4.00377	27.7204
-3.4865	26.8524
-3.01208	25.983
-4.00377	27.7204
-3.00083	27.7275
-2.00122	27.7088
-3.00567	29.4535
-2.51377	28.5772
-2.00122	27.7088
-3.00567	29.4535
-1.99624	29.4506
-0.998011	29.4499
-25.9998	-13.8467
-25.5005	-12.981
-25.0136	-12.1187
-25.9998	-13.8467
-25.5073	-14.7128
-24.9971	-15.592
-25.9998	-13.8467
-24.9931	-13.8588
-23.9941	-13.8596
-25.0136	-12.1187
-24.5007	-12.9765
-23.9941	-13.8596
-23.9946	-10.4027
-23.4923	-9.5151
-23.0095	-8.64794
-23.0095	-8.64794
-22.4912	-7.80247
-21.985	-6.93939
-23.0095	-8.64794
-22.4984	-9.53817
-21.9907	-10.382
-23.0095	-8.64794
-22.0009	-8.6558
-20.9956	-8.66942
-21.985	-6.93939
-21.4878	-6.06997
-20.9942	-5.20053
-20.9942	-5.20053
-20.4953	-6.07171
-20.0114	-6.92091
-20.0135	-3.47692
-19.0067	-3.4599
-18.0128	-3.46475
-18.9968	-1.72932
-18.4859	-2.6035
-18.0128	-3.46475
-18.9968	-1.72932
-18.0076	-1.72009
-17.008	-1.74566
-18.0005	-0.010042
-17.4941	0.857882
-16.9991	1.72142
-18.0005	-0.010042
-16.991	0.0143869
-15.9979	0.00838765
-16.9991	1.72142
-16.4941	0.859555
-15.9979	0.00838765
-16.9991	1.72142
-15.999	1.72108
-14.9913	1.73944
-16.0107	3.4584
-15.5128	4.31875
-14.9898	5.2099
-16.0107	3.4584
-15.4946	2.58386
-14.9913	1.73944
-14.9898	5.2099
-14.4946	4.33077
-14.0077	3.46197
-14.0052	6.92169
-12.9876	6.93614
-11.994	6.93163
-12.9911	8.6481
-12.5103	9.52747
-11.987	10.388
-12.9911	8.6481
-12.5067	7.7896
-11.994	6.93163
-11.987	10.388
-11.4927	11.2593
-10.9895	12.1132
-11.987	10.388
-11.493	9.53114
-11.0145	8.66363
-10.9895	12.1132
-10.4958	12.9817
-10.0074	13.8562
-10.9895	12.1132
-10.5019	11.2612
-10.0061	10.3967
-10.9895	12.1132
-10.0051	12.1272
-9.00145	12.1103
-10.0074	13.8562
-9.49475	13.0053
-9.00145	12.1103
-10.0074	13.8562
-8.98923	13.8467
-7.99295	13.8711
-9.00956	15.596
-8.50886	14.7181
-7.99295	13.8711
-7.98679	17.3264
-6.99267	17.3106
-5.9862	17.3274
-6.99257	19.0461
-6.51155	19.9155
-5.98511	20.7862
-5.98511	20.7862
-5.50953	21.6562
-4.99015	22.5114
-5.98511	20.7862
-5.0133	20.792
-4.00797	20.797
-4.99015	22.5114
-4.00345	22.5056
-2.99992	22.51
-3.98569	24.237
-3.51109	23.3811
-2.99992	22.51
-3.01208	25.983
-2.49719	26.8582
-2.00122	27.7088
-2.00122	27.7088
-1.5003	28.5858
-0.998011	29.4499
-0.998011	29.4499
-0.513745	28.5716
0.00770369	27.7102
-24.9971	-15.592
-24.5137	-16.4538
-23.9934	-17.3119
-24.9971	-15.592
-23.9969	-15.58
-23.0124	-15.5928
-23.9941	-13.8596
-23.4994	-12.9998
-22.9857	-12.1217
-23.9941	-13.8596
-23.0005	-13.8414
-21.9969	-13.8422
-22.9857	-12.1217
-22.4961	-11.2623
-21.9907	-10.382
-22.9857	-12.1217
-22.511	-12.9961
-21.9969	-13.8422
-21.9907	-10.382
-21.503	-9.51755
-20.9956	-8.66942
-21.9907	-10.382
-21.5028	-11.2585
-20.9943	-12.1299
-20.9956	-8.66942
-20.4948	-7.78023
-20.0114	-6.92091
-20.9956	-8.66942
-20.4958	-9.52639
-20.0021	-10.3911
-20.0114	-6.92091
-19.486	-6.04876
-19.0107	-5.20947
-20.0114	-6.92091
-19.4883	-7.78206
-18.9932	-8.66297
-20.0114	-6.92091
-18.9998	-6.92298
-18.0061	-6.92855
-19.0107	-5.20947
-18.0092	-5.19184
-17.0074	-5.20354
-18.0128	-3.46475
-17.5123	-4.34451
-17.0074	-5.20354
-18.0128	-3.46475
-17.0141	-3.45055
-15.9927	-3.46099
-17.008	-1.74566
-16.5016	-2.59695
-15.9927	-3.46099
-17.008	-1.74566
-15.9977	-1.73868
-15.0079	-1.72976
-15.9979	0.00838765
-15.4952	0.879411
-14.9913	1.73944
-15.9979	0.00838765
-14.9926	0.0106818
-13.9859	-0.0118941
-14.9913	1.73944
-14.5115	0.874979
-13.9859	-0.0118941
-14.9913	1.73944
-13.9994	1.73189
-12.9957	1.74085
-14.0077	3.46197
-13.491	4.3448
-12.9919	5.20367
-14.0077	3.46197
-13.4926	2.58925
-12.9957	1.74085
-14.0077	3.46197
-12.9917	3.45837
-11.9891	3.46757
-12.9919	5.20367
-12.494	6.05624
-11.994	6.93163
-12.9919	5.20367
-12.4872	4.32303
-11.9891	3.46757
-12.9919	5.20367
-11.9935	5.20101
-11.0144	5.20625
-11.994	6.93163
-11.5041	7.80045
-11.0145	8.66363
-11.0145	8.66363
-10.4994	9.52976
-10.0061	10.3967
-10.0061	10.3967
-9.51009	11.2524
-9.00145	12.1103
-9.00145	12.1103
-8.51203	11.2505
-8.00276	10.3988
-7.99295	13.8711
-7.50073	12.9915
-7.01343	12.1202
-5.9862	17.3274
-5.4951	18.1718
-5.00947	19.0454
-5.9862	17.3274
-5.49896	16.4647
-5.00713	15.586
-5.00947	19.0454
-4.48764	19.9235
-4.00797	20.797
-4.00797	20.797
-3.48851	21.658
-2.99992	22.51
-4.00797	20.797
-3.49536	19.9134
-2.99741	19.061
-4.00797	20.797
-3.0117	20.7703
-1.98596	20.7715
-2.99992	22.51
-2.50975	23.3744
-2.01313	24.2396
-2.99992	22.51
-2.49623	21.6441
-1.98596	20.7715
-2.01313	24.2396
-0.987012	24.2627
0.0132316	24.2391
-1.00124	25.9784
-0.503268	26.8327
0.00770369	27.7102
0.00770369	27.7102
0.509292	28.5783
0.987547	29.4396
0.00770369	27.7102
0.500079	26.856
0.992417	25.9893
0.00770369	27.7102
1.00661	27.7155
2.01046	27.7094
0.987547	29.4396
1.49915	28.5834
2.01046	27.7094
-23.9934	-17.3119
-23.493	-16.4622
-23.0124	-15.5928
-23.0124	-15.5928
-22.5021	-16.4668
-21.9952	-17.3099
-21.9969	-13.8422
-21.4903	-14.7121
-21.0062	-15.6013
-21.9969	-13.8422
-20.9899	-13.8478
-20.0027	-13.8615
-20.0021	-10.3911
-18.9945	-10.401
-18.0146	-10.3916
-18.9932	-8.66297
-18.4889	-9.53596
-18.0146	-10.3916
-18.9932	-8.66297
-17.9911	-8.65808
-16.9852	-8.66233
-18.0061	-6.92855
-17.5141	-7.79971
-16.9852	-8.66233
-18.0061	-6.92855
-17.0047	-6.94312
-16.0103	-6.92003
-17.0074	-5.20354
-16.4976	-4.33528
-15.9927	-3.46099
-15.9927	-3.46099
-15.4954	-2.6034
-15.0079	-1.72976
-15.9927	-3.46099
-15.5138	-4.34091
-15.0051	-5.1953
-15.0079	-1.72976
-14.5047	-0.878844
-13.9859	-0.0118941
-15.0079	-1.72976
-14.0088	-1.73029
-12.9984	-1.74595
-13.9859	-0.0118941
-13.0144	-0.00521415
-11.9957	-0.00517204
-12.9957	1.74085
-12.5129	2.59305
-11.9891	3.46757
-12.9957	1.74085
-12.5	0.878825
-11.9957	-0.00517204
-12.9957	1.74085
-11.992	1.72649
-11.0066	1.74669
-11.9891	3.46757
-11.5047	4.33619
-11.0144	5.20625
-11.9891	3.46757
-11.0029	3.45569
-10.0043	3.45435
-11.0144	5.20625
-10.5013	6.05521
-10.0036	6.92282
-11.0144	5.20625
-10.4975	4.32653
-10.0043	3.45435
-11.0144	5.20625
-10.0133	5.20796
-8.98548	5.20264
-10.0036	6.92282
-9.48625	7.79083
-8.98907	8.65805
-8.98907	8.65805
-8.51351	9.52453
-8.00276	10.3988
-8.98907	8.65805
-8.50758	7.78014
-7.99353	6.9208
-8.00276	10.3988
-7.50831	11.2706
-7.01343	12.1202
-8.00276	10.3988
-7.49766	9.52399
-6.9994	8.67081
-8.00276	10.3988
-7.01038	10.4003
-6.00953	10.4016
-6.0079	13.8547
-5.5094	14.7216
-5.00713	15.586
-6.0079	13.8547
-5.48889	12.9833
-5.01003	12.134
-6.0079	13.8547
-4.99445	13.8578
-3.98877	13.8547
-5.00713	15.586
-4.51448	14.7305
-3.98877	13.8547
-3.99167	17.3056
-3.50028	18.1938
-2.99741	19.061
-3.99167	17.3056
-3.00656	17.3251
-2.01275	17.3345
-2.99741	19.061
-2.51107	19.9258
-1.98596	20.7715
-2.99741	19.061
-2.50573	18.2008
-2.01275	17.3345
-2.99741	19.061
-1.98601	19.0448
-1.00604	19.0502
-1.98596	20.7715
-1.51165	21.6566
-0.998966	22.5035
-1.98596	20.7715
-0.996809	20.7857
-0.00182561	20.7823
-0.998966	22.5035
-0.50091	23.3696
0.0132316	24.2391
-0.998966	22.5035
-0.49841	21.6608
-0.00182561	20.7823
0.0132316	24.2391
0.496152	25.1054
0.992417	25.9893
0.0132316	24.2391
0.990222	24.2501
2.0052	24.2579
0.992417	25.9893
1.50659	26.8578
2.01046	27.7094
0.992417	25.9893
1.49854	25.1208
2.0052	24.2579
2.01046	27.7094
2.99094	27.7249
4.00745	27.7163
-23.0002	-19.0446
-22.0067	-19.0605
-20.995	-19.0542
-21.9952	-17.3099
-21.507	-16.4677
-21.0062	-15.6013
-21.9952	-17.3099
-21.0019	-17.3108
-19.9948	-17.3219
-21.0062	-15.6013
-20.5128	-14.7345
-20.0027	-13.8615
-21.0062	-15.6013
-20.4894	-16.4636
-19.9948	-17.3219
-20.0027	-13.8615
-19.4916	-12.9803
-19.0072	-12.1205
-20.0027	-13.8615
-19.4949	-14.722
-19.0148	-15.5857
-18.0146	-10.3916
-17.4936	-9.52907
-16.9852	-8.66233
-18.0146	-10.3916
-17.4915	-11.2609
-16.9891	-12.1171
-16.9852	-8.66233
-16.5073	-7.78517
-16.0103	-6.92003
-16.0103	-6.92003
-15.5043	-7.80644
-14.9929	-8.6554
-16.0103	-6.92003
-15.0098	-6.93463
-13.9946	-6.93025
-15.0051	-5.1953
-14.5055	-4.32104
-13.9894	-3.46557
-15.0051	-5.1953
-14.4922	-6.06171
-13.9946	-6.93025
-13.9894	-3.46557
-13.5027	-4.33338
-13.0117	-5.20286
-12.9984	-1.74595
-12.5	-0.857627
-11.9957	-0.00517204
-12.9984	-1.74595
-12.4943	-2.60567
-12.0055	-3.45597
-12.9984	-1.74595
-12.008	-1.7444
-11.0106	-1.71914
-11.0066	1.74669
-10.4919	2.60659
-10.0043	3.45435
-10.0043	3.45435
-9.5146	4.33952
-8.98548	5.20264
-10.0043	3.45435
-8.99797	3.45192
-7.99015	3.47855
-8.98548	5.20264
-8.50005	6.05625
-7.99353	6.9208
-8.98548	5.20264
-8.00308	5.21068
-7.0018	5.21112
-7.99353	6.9208
-7.48781	6.0764
-7.0018	5.21112
-7.99353	6.9208
-6.99888	6.94187
-5.99772	6.92375
-6.9994	8.67081
-6.49853	9.52588
-6.00953	10.4016
-6.9994	8.67081
-6.50727	7.80597
-5.99772	6.92375
-6.9994	8.67081
-5.9915	8.67354
-4.99855	8.67099
-6.00953	10.4016
-5.50757	11.2467
-5.01003	12.134
-6.00953	10.4016
-4.99032	10.3966
-3.99473	10.3884
-5.01003	12.134
-4.50304	12.9848
-3.98877	13.8547
-5.01003	12.134
-4.51267	11.253
-3.99473	10.3884
-5.01003	12.134
-4.00884	12.1136
-2.99171	12.1149
-3.98877	13.8547
-3.49335	14.736
-2.99479	15.5781
-3.98877	13.8547
-3.50465	12.9949
-2.99171	12.1149
-3.98877	13.8547
-3.01094	13.8471
-1.99921	13.8642
-2.99479	15.5781
-2.49332	14.7372
-1.99921	13.8642
-2.01275	17.3345
-1.50752	18.1972
-1.00604	19.0502
-2.01275	17.3345
-1.01148	17.3129
0.0136028	17.3259
-1.00604	19.0502
-0.495927	19.9089
-0.00182561	20.7823
-1.00604	19.0502
0.00114004	19.0582
0.993257	19.0415
-0.00182561	20.7823
0.487653	21.6565
0.995057	22.5193
-0.00182561	20.7823
1.00798	20.7831
1.99263	20.7975
0.995057	22.5193
1.49835	23.3857
2.0052	24.2579
0.995057	22.5193
2.00639	22.5159
3.0119	22.5086
2.0052	24.2579
2.48511	25.1075
2.988	25.9855
4.00745	27.7163
4.48657	28.5733
5.00246	29.4584
4.00745	27.7163
4.49443	26.8325
5.01304	25.9723
4.00745	27.7163
5.00099	27.7067
5.9957	27.7124
5.00246	29.4584
5.49845	28.5656
5.9957	27.7124
-20.995	-19.0542
-20.4976	-18.1886
-19.9948	-17.3219
-20.995	-19.0542
-20.514	-19.9041
-20.013	-20.7729
-19.0148	-15.5857
-18.5041	-16.4685
-17.9908	-17.3334
-19.0148	-15.5857
-17.9982	-15.5846
-17.0146	-15.5883
-15.9987	-10.3945
-15.4969	-11.2529
-15.0118	-12.1192
-15.9987	-10.3945
-14.992	-10.4065
-13.9862	-10.3797
-14.9929	-8.6554
-14.4911	-7.79783
-13.9946	-6.93025
-14.9929	-8.6554
-14.4977	-9.52693
-13.9862	-10.3797
-13.9946	-6.93025
-12.9866	-6.93775
-11.9865	-6.92843
-13.0117	-5.20286
-12.5063	-4.33677
-12.0055	-3.45597
-13.0117	-5.20286
-12.5057	-6.05203
-11.9865	-6.92843
-13.0117	-5.20286
-12.0096	-5.18696
-10.9903	-5.19234
-12.0055	-3.45597
-11.4996	-4.31765
-10.9903	-5.19234
-11.0106	-1.71914
-10.4856	-2.58836
-9.99778	-3.47126
-11.0106	-1.71914
-9.99055	-1.73155
-8.99899	-1.71841
-10.0002	-0.00640053
-9.50974	0.877702
-9.01493	1.72789
-10.0002	-0.00640053
-9.49352	-0.851552
-8.99899	-1.71841
-9.01493	1.72789
-8.49095	2.58358
-7.99015	3.47855
-9.01493	1.72789
-8.49759	0.868086
-8.0076	-0.000550287
-9.01493	1.72789
-8.00893	1.73053
-6.99912	1.7442
-7.99015	3.47855
-7.48854	2.59564
-6.99912	1.7442
-7.0018	5.21112
-6.49895	6.0707
-5.99772	6.92375
-7.0018	5.21112
-6.49826	4.33705
-6.00167	3.4751
-7.0018	5.21112
-6.00735	5.19921
-5.01239	5.20405
-5.99772	6.92375
-5.01012	6.91965
-3.98792	6.91733
-4.99855	8.67099
-4.49204	9.52328
-3.99473	10.3884
-4.99855	8.67099
-3.99175	8.67004
-2.99156	8.65659
-3.99473	10.3884
-3.50363	11.2575
-2.99171	12.1149
-3.99473	10.3884
-2.98577	10.3905
-2.01387	10.3846
-1.99921	13.8642
-1.51483	12.9822
-1.01071	12.1272
-1.00833	15.5736
-0.490757	16.4508
0.0136028	17.3259
-1.00833	15.5736
-0.0122752	15.5876
1.01407	15.5807
0.0136028	17.3259
1.01056	17.3347
1.99355	17.3301
0.993257	19.0415
1.49535	19.9168
1.99263	20.7975
0.993257	19.0415
1.49408	18.1874
1.99355	17.3301
0.993257	19.0415
1.98592	19.0618
2.99194	19.0593
1.99263	20.7975
2.49914	21.6593
3.0119	22.5086
1.99263	20.7975
2.51148	19.9089
2.99194	19.0593
1.99263	20.7975
2.98558	20.7987
3.99962	20.7838
3.0119	22.5086
3.50632	21.6623
3.99962	20.7838
5.9957	27.7124
6.51428	26.853
7.01225	25.978
-20.013	-20.7729
-19.5079	-19.9138
-19.0099	-19.0613
-19.0099	-19.0613
-17.9933	-19.0381
-17.0043	-19.0552
-17.9908	-17.3334
-17.5143	-16.4451
-17.0146	-15.5883
-17.9908	-17.3334
-17.4887	-18.1874
-17.0043	-19.0552
-17.9908	-17.3334
-17.0016	-17.3288
-15.992	-17.3175
-17.0146	-15.5883
-16.5138	-14.7141
-15.9867	-13.8528
-17.0146	-15.5883
-16.4994	-16.4693
-15.992	-17.3175
-17.0146	-15.5883
-16.002	-15.5956
-14.9878	-15.6011
-15.9867	-13.8528
-15.4893	-14.7271
-14.9878	-15.6011
-15.9867	-13.8528
-15.003	-13.8652
-14	-13.8564
-15.0118	-12.1192
-14.4992	-11.244
-13.9862	-10.3797
-15.0118	-12.1192
-14.5028	-12.9941
-14	-13.8564
-15.0118	-12.1192
-14.0145	-12.121
-12.9958	-12.1369
-13.9862	-10.3797
-12.9907	-10.4064
-12.0098	-10.3857
-12.9866	-8.65794
-12.4942	-7.78538
-11.9865	-6.92843
-11.9865	-6.92843
-11.4985	-7.78043
-10.9987	-8.66974
-11.9865	-6.92843
-11.0098	-6.93912
-9.9853	-6.92621
-10.9903	-5.19234
-10.4857	-6.06101
-9.9853	-6.92621
-9.99778	-3.47126
-9.49328	-2.60673
-8.99899	-1.71841
-9.99778	-3.47126
-9.0056	-3.46905
-7.99216	-3.47726
-8.99899	-1.71841
-8.48968	-0.865909
-8.0076	-0.000550287
-8.99899	-1.71841
-8.50652	-2.59056
-7.99216	-3.47726
-8.0076	-0.000550287
-7.49355	0.871565
-6.99912	1.7442
-8.0076	-0.000550287
-7.5144	-0.86766
-7.00082	-1.73456
-6.99912	1.7442
-6.49913	2.59713
-6.00167	3.4751
-6.00167	3.4751
-5.51326	4.34506
-5.01239	5.20405
-6.00167	3.4751
-5.50272	2.59485
-4.99378	1.74215
-5.01239	5.20405
-4.50374	6.07017
-3.98792	6.91733
-5.01239	5.20405
-4.49781	4.32429
-4.01024	3.44912
-5.01239	5.20405
-3.99851	5.18599
-3.0008	5.21038
-3.98792	6.91733
-3.50594	7.79193
-2.99156	8.65659
-3.98792	6.91733
-3.50675	6.07028
-3.0008	5.21038
-3.98792	6.91733
-2.98603	6.92766
-1.98785	6.92375
-2.99156	8.65659
-2.50305	9.51839
-2.01387	10.3846
-2.99156	8.65659
-2.01257	8.67096
-1.01283	8.65389
-2.01387	10.3846
-1.48537	11.2664
-1.01071	12.1272
-2.01387	10.3846
-1.50176	9.53454
-1.01283	8.65389
-2.01387	10.3846
-0.99913	10.3836
0.00122664	10.3935
-1.01071	12.1272
-0.51311	12.9981
-0.00383395	13.8686
-1.01071	12.1272
-0.501867	11.2437
0.00122664	10.3935
-0.00383395	13.8686
0.490734	14.7117
1.01407	15.5807
1.99355	17.3301
2.99466	17.3354
4.00224	17.3082
2.99194	19.0593
3.49579	19.9263
3.99962	20.7838
2.99194	19.0593
4.01183	19.0383
4.99899	19.0386
3.99962	20.7838
4.4878	21.6606
4.99751	22.5209
3.99962	20.7838
4.50973	19.9243
4.99899	19.0386
4.99751	22.5209
5.49055	21.6594
5.98564	20.7927
5.98565	24.2576
6.48557	23.3882
7.00451	22.5296
5.98565	24.2576
6.9913	24.2385
7.99678	24.2466
7.01225	25.978
7.49377	26.8329
7.98889	27.7012
7.01225	25.978
7.99167	25.9846
8.98575	25.9721
-19.0145	-22.5302
-18.0012	-22.5044
-17.0099	-22.5067
-18.0085	-20.7724
-17.4951	-19.9225
-17.0043	-19.0552
-18.0085	-20.7724
-17.5105	-21.6528
-17.0099	-22.5067
-18.0085	-20.7724
-17.0091	-20.7732
-16.0037	-20.7838
-17.0043	-19.0552
-16.5067	-18.1956
-15.992	-17.3175
-17.0043	-19.0552
-16.498	-19.9248
-16.0037	-20.7838
-17.0043	-19.0552
-16.0119	-19.0496
-15.0114	-19.0522
-15.992	-17.3175
-15.4959	-16.447
-14.9878	-15.6011
-15.992	-17.3175
-15.5066	-18.1977
-15.0114	-19.0522
-15.992	-17.3175
-14.9925	-17.3309
-13.9951	-17.3339
-14.9878	-15.6011
-13.9992	-15.5974
-13.0123	-15.5933
-14	-13.8564
-13.5041	-13.0053
-12.9958	-12.1369
-14	-13.8564
-13.502	-14.7121
-13.0123	-15.5933
-12.9958	-12.1369
-12.5069	-12.9783
-11.9875	-13.8466
-12.0098	-10.3857
-11.4922	-11.2441
-11.0018	-12.1261
-10.9987	-8.66974
-10.4946	-7.77977
-9.9853	-6.92621
-9.9853	-6.92621
-9.49368	-7.7844
-8.9858	-8.6454
-9.9853	-6.92621
-8.99155	-6.94222
-7.98836	-6.92923
-9.01115	-5.19238
-8.49684	-4.31726
-7.99216	-3.47726
-9.01115	-5.19238
-8.01055	-5.1916
-7.00445	-5.20494
-7.99216	-3.47726
-7.50762	-2.59416
-7.00082	-1.73456
-7.99216	-3.47726
-6.99034	-3.45985
-5.98712	-3.46824
-7.00082	-1.73456
-6.5117	-0.878626
-6.00054	0.00540195
-7.00082	-1.73456
-6.00304	-1.72882
-5.00709	-1.7367
-6.00054	0.00540195
-5.49078	-0.876428
-5.00709	-1.7367
-4.99378	1.74215
-4.48763	2.59293
-4.01024	3.44912
-4.99378	1.74215
-4.00525	1.72916
-2.99356	1.7371
-4.01024	3.44912
-3.50085	2.60567
-2.99356	1.7371
-3.0008	5.21038
-2.50841	6.06493
-1.98785	6.92375
-3.0008	5.21038
-2.49488	4.31618
-2.00727	3.4584
-1.98785	6.92375
-1.49029	7.78213
-1.01283	8.65389
-1.98785	6.92375
-1.49531	6.06042
-0.986409	5.20071
-1.98785	6.92375
-0.98713	6.93398
0.0137552	6.92101
-1.01283	8.65389
-0.508927	9.54124
0.00122664	10.3935
-1.01283	8.65389
-0.485998	7.79862
0.0137552	6.92101
-1.01283	8.65389
-0.00933946	8.65353
1.01211	8.65522
0.00122664	10.3935
0.513295	11.2579
1.00345	12.1199
0.00122664	10.3935
1.0128	10.3942
1.99165	10.4046
1.00345	12.1199
1.49238	12.9755
1.99823	13.8532
1.00345	12.1199
1.51142	11.2593
1.99165	10.4046
3.00997	15.5784
3.5096	16.4597
4.00224	17.3082
3.00997	15.5784
3.48601	14.7341
3.99125	13.8443
4.00224	17.3082
4.49083	18.1957
4.99899	19.0386
4.00224	17.3082
5.00996	17.3282
6.0093	17.3108
4.99899	19.0386
5.50589	19.9331
5.98564	20.7927
4.99899	19.0386
5.4962	18.2003
6.0093	17.3108
5.98564	20.7927
6.50784	21.6623
7.00451	22.5296
5.98564	20.7927
6.5118	19.9205
6.99644	19.0509
7.00451	22.5296
7.50772	21.6436
8.00976	20.7907
7.99678	24.2466
8.51476	25.1162
8.98575	25.9721
7.99678	24.2466
8.50914	23.3697
8.99562	22.5104
7.99678	24.2466
8.98997	24.2411
9.991	24.2355
8.98575	25.9721
9.50606	26.8569
9.99096	27.7196
8.98575	25.9721
9.48897	25.1251
9.991	24.2355
8.98575	25.9721
10.0094	25.9867
10.9975	25.9777
9.99096	27.7196
10.492	26.8487
10.9975	25.9777
-17.0099	-22.5067
-16.4964	-21.6582
-16.0037	-20.7838
-17.0099	-22.5067
-16.5021	-23.3957
-15.9869	-24.257
-16.0037	-20.7838
-15.4865	-19.9272
-15.0114	-19.0522
-16.0037	-20.7838
-14.9933	-20.7867
-14.0065	-20.7777
-15.0114	-19.0522
-14.4912	-18.1743
-13.9951	-17.3339
-15.0114	-19.0522
-13.9977	-19.0391
-12.9976	-19.0472
-13.9951	-17.3339
-13.4926	-16.4427
-13.0123	-15.5933
-13.9951	-17.3339
-12.9923	-17.3255
-12.0108	-17.3191
-13.0123	-15.5933
-12.5137	-14.7094
-11.9875	-13.8466
-13.0123	-15.5933
-12.4939	-16.4449
-12.0108	-17.3191
-11.9875	-13.8466
-11.5	-12.9993
-11.0018	-12.1261
-11.9875	-13.8466
-11.4889	-14.7312
-11.0098	-15.586
-11.9875	-13.8466
-10.994	-13.8565
-9.99992	-13.8617
-10.0009	-10.4003
-9.49294	-9.51198
-8.9858	-8.6454
-10.0009	-10.4003
-9.49221	-11.2504
-9.00896	-12.1218
-8.9858	-8.6454
-8.49905	-7.78629
-7.98836	-6.92923
-8.9858	-8.6454
-8.50688	-9.54065
-7.99841	-10.3812
-8.9858	-8.6454
-7.99573	-8.65829
-6.99634	-8.64527
-7.98836	-6.92923
-7.51006	-6.07254
-7.00445	-5.20494
-7.98836	-6.92923
-6.99289	-6.93395
-6.0082	-6.92672
-7.00445	-5.20494
-5.99708	-5.2003
-4.99938	-5.18515
-5.98712	-3.46824
-5.49967	-4.32135
-4.99938	-5.18515
-5.00709	-1.7367
-4.51161	-0.880332
-4.00375	-0.00242996
-5.00709	-1.7367
-4.50085	-2.58411
-4.00333	-3.45945
-5.00709	-1.7367
-4.01336	-1.73667
-3.01093	-1.72852
-4.00375	-0.00242996
-3.50306	0.862094
-2.99356	1.7371
-4.00375	-0.00242996
-3.51374	-0.87243
-3.01093	-1.72852
-4.00375	-0.00242996
-3.0065	0.00985691
-1.99147	-0.00883317
-2.99356	1.7371
-2.50121	2.60878
-2.00727	3.4584
-2.99356	1.7371
-1.98702	1.73395
-1.00775	1.72403
-2.00727	3.4584
-1.50745	4.32734
-0.986409	5.20071
-2.00727	3.4584
-1.48521	2.58992
-1.00775	1.72403
-0.986409	5.20071
-0.505764	6.05639
0.0137552	6.92101
-0.986409	5.20071
-0.50871	4.32251
-0.00779706	3.45817
-0.986409	5.20071
-0.012171	5.19773
0.999126	5.19995
0.0137552	6.92101
0.498633	7.80228
1.01211	8.65522
0.0137552	6.92101
0.493731	6.04897
0.999126	5.19995
0.0137552	6.92101
1.00286	6.93341
2.0056	6.93555
1.01211	8.65522
1.49882	9.52218
1.99165	10.4046
1.01211	8.65522
1.51364	7.77964
2.0056	6.93555
1.01211	8.65522
2.00426	8.6637
2.98891	8.65156
1.99165	10.4046
2.50158	9.51764
2.98891	8.65156
2.99781	12.1356
3.50484	13.0053
3.99125	13.8443
2.99781	12.1356
3.50498	11.2556
3.99755	10.3848
3.99125	13.8443
4.51165	14.7155
5.00934	15.5928
3.99125	13.8443
4.5077	12.9846
5.01276	12.1378
3.99125	13.8443
4.99707	13.8563
6.01335	13.8612
6.0093	17.3108
6.49238	16.4614
6.99787	15.5897
6.99644	19.0509
8.00237	19.0408
9.01239	19.0443
8.00976	20.7907
8.51304	21.6618
8.99562	22.5104
8.00976	20.7907
8.50355	19.9294
9.01239	19.0443
8.00976	20.7907
9.00151	20.7928
10.0099	20.7849
8.99562	22.5104
9.50024	21.6539
10.0099	20.7849
8.99562	22.5104
10.0148	22.5135
11.0021	22.5028
9.991	24.2355
10.5122	23.3904
11.0021	22.5028
9.991	24.2355
10.989	24.2563
11.9875	24.2453
10.9975	25.9777
11.4887	25.118
11.9875	24.2453
-15.9869	-24.257
-14.9891	-24.2343
-14.0082	-24.2464
-14.9958	-22.5249
-14.5061	-21.6456
-14.0065	-20.7777
-14.9958	-22.5249
-14.0105	-22.5219
-13.0062	-22.5288
-14.0065	-20.7777
-13.5119	-21.6515
-13.0062	-22.5288
-12.9976	-19.0472
-12.5083	-18.1787
-12.0108	-17.3191
-12.9976	-19.0472
-12.0091	-19.0449
-11.0006	-19.0489
-12.0108	-17.3191
-11.4939	-16.4483
-11.0098	-15.586
-12.0108	-17.3191
-10.9999	-17.3209
-10	-17.3205
-11.0098	-15.586
-10.4875	-16.4445
-10	-17.3205
-9.99992	-13.8617
-9.50763	-13.0027
-9.00896	-12.1218
-9.99992	-13.8617
-9.51385	-14.7125
-9.01452	-15.5842
-9.00896	-12.1218
-8.51142	-12.9878
-7.9982	-13.8487
-9.00896	-12.1218
-7.99746	-12.1242
-6.99837	-12.1336
-7.99841	-10.3812
-7.49729	-9.5293
-6.99634	-8.64527
-7.99841	-10.3812
-7.50438	-11.2482
-6.99837	-12.1336
-7.99841	-10.3812
-6.99039	-10.4019
-5.98516	-10.3842
-6.99634	-8.64527
-6.5084	-7.8034
-6.0082	-6.92672
-6.99634	-8.64527
-6.51294	-9.52074
-5.98516	-10.3842
-6.99634	-8.64527
-6.01344	-8.6591
-5.00563	-8.67166
-6.0082	-6.92672
-5.50306	-6.07016
-4.99938	-5.18515
-6.0082	-6.92672
-5.48789	-7.79089
-5.00563	-8.67166
-6.0082	-6.92672
-5.00283	-6.93586
-4	-6.9282
-4.99938	-5.18515
-4.50829	-4.34266
-4.00333	-3.45945
-4.99938	-5.18515
-4.00881	-5.20203
-3.00641	-5.18467
-4.00333	-3.45945
-3.50989	-2.596
-3.01093	-1.72852
-4.00333	-3.45945
-2.98708	-3.46597
-2.00135	-3.47419
-3.01093	-1.72852
-2.48558	-0.865099
-1.99147	-0.00883317
-3.01093	-1.72852
-2.00502	-1.72312
-1.00397	-1.72802
-1.99147	-0.00883317
-1.49807	0.871934
-1.00775	1.72403
-1.99147	-0.00883317
-1.01113	-0.00171693
-0.0141355	0.00354078
-1.00775	1.72403
-0.511465	2.602
-0.00779706	3.45817
-1.00775	1.72403
-0.514357	0.875613
-0.0141355	0.00354078
-0.00779706	3.45817
0.514071	4.32793
0.999126	5.19995
-0.00779706	3.45817
1.00204	3.46147
2.00872	3.4594
0.999126	5.19995
1.51255	6.04842
2.0056	6.93555
2.0056	6.93555
2.50356	6.0475
3.0098	5.19304
2.0056	6.93555
3.0086	6.92743
3.98947	6.9295
2.98891	8.65156
4.00068	8.66237
5.00453	8.65365
3.99755	10.3848
4.49673	11.2489
5.01276	12.1378
3.99755	10.3848
4.51001	9.51589
5.00453	8.65365
5.01276	12.1378
5.50852	12.9775
6.01335	13.8612
5.01276	12.1378
6.01378	12.1353
7.00879	12.1383
6.01335	13.8612
6.509	14.726
6.99787	15.5897
6.01335	13.8612
6.49662	12.9977
7.00879	12.1383
6.01335	13.8612
6.99618	13.8532
7.99419	13.858
6.99787	15.5897
7.51331	16.4427
7.98793	17.3081
6.99787	15.5897
8.00608	15.5927
9	15.5885
7.98793	17.3081
8.50898	18.1934
9.01239	19.0443
7.98793	17.3081
8.51024	16.4553
9	15.5885
9.01239	19.0443
9.48659	19.9046
10.0099	20.7849
9.01239	19.0443
9.50161	18.2007
10.0113	17.3155
9.01239	19.0443
9.99345	19.067
11.0013	19.0638
10.0099	20.7849
10.9886	20.7959
12.0069	20.7946
11.0021	22.5028
11.9971	22.5268
12.9917	22.5163
11.9875	24.2453
12.4967	25.1225
12.9859	25.9751
-14.9897	-25.9929
-14.5126	-25.1181
-14.0082	-24.2464
-14.9897	-25.9929
-13.9935	-25.9933
-13.0085	-25.9909
-14.0082	-24.2464
-13.51	-23.3865
-13.0062	-22.5288
-14.0082	-24.2464
-13.5014	-25.109
-13.0085	-25.9909
-14.0082	-24.2464
-12.9888	-24.2561
-11.9913	-24.2621
-13.0062	-22.5288
-12.0136	-22.5051
-11.001	-22.5025
-12.0064	-20.7757
-11.5107	-21.6557
-11.001	-22.5025
-12.0064	-20.7757
-10.9997	-20.773
-9.99479	-20.7715
-10	-17.3205
-9.50767	-16.462
-9.01452	-15.5842
-10	-17.3205
-9.5124	-18.1833
-9	-19.0526
-9.01452	-15.5842
-8.4864	-14.7357
-7.9982	-13.8487
-9.01452	-15.5842
-8.51464	-16.4515
-8.01457	-17.3298
-7.9982	-13.8487
-7.50847	-12.9968
-6.99837	-12.1336
-7.9982	-13.8487
-6.98965	-13.849
-6.00064	-13.8421
-6.99837	-12.1336
-6.50894	-11.2546
-5.98516	-10.3842
-6.99837	-12.1336
-6.4879	-12.984
-6.00064	-13.8421
-5.98516	-10.3842
-5.50692	-9.54062
-5.00563	-8.67166
-5.98516	-10.3842
-5.50084	-11.2689
-5	-12.1244
-5.98516	-10.3842
-5.01186	-10.388
-3.98874	-10.4028
-5.00563	-8.67166
-4.50282	-7.80844
-4	-6.9282
-5.00563	-8.67166
-4.5015	-9.53773
-3.98874	-10.4028
-5.00563	-8.67166
-3.98532	-8.65135
-2.98889	-8.65529
-4	-6.9282
-3.51122	-6.0521
-3.00641	-5.18467
-4	-6.9282
-3.50027	-7.7998
-2.98889	-8.65529
-3.00641	-5.18467
-2.49678	-4.33317
-2.00135	-3.47419
-3.00641	-5.18467
-1.99269	-5.2013
-0.99806	-5.18675
-1.00397	-1.72802
0.00998601	-1.7366
1.00473	-1.72006
-0.0141355	0.00354078
0.502027	0.874511
0.995342	1.73828
-0.0141355	0.00354078
0.488933	-0.87622
1.00473	-1.72006
-0.0141355	0.00354078
1.00188	-0.00791521
1.98574	0.00596308
0.995342	1.73828
1.48788	2.59623
2.00872	3.4594
0.995342	1.73828
1.99717	1.73905
3.00172	1.74555
2.00872	3.4594
2.49094	4.33314
3.0098	5.19304
2.00872	3.4594
2.48565	2.58646
3.00172	1.74555
3.0098	5.19304
3.50967	4.34148
3.99206	3.4543
3.0098	5.19304
3.98736	5.19534
5.0123	5.1923
3.98947	6.9295
4.51407	7.79387
5.00453	8.65365
3.98947	6.9295
5.00096	6.93021
6.0005	6.91815
5.00453	8.65365
5.50584	9.52983
5.98518	10.3899
5.98518	10.3899
6.50581	9.53524
6.99966	8.64615
7.00879	12.1383
7.50803	12.9799
7.99419	13.858
7.99419	13.858
8.50262	12.9982
8.98855	12.1309
7.99419	13.858
8.99454	13.8584
9.98544	13.8657
9	15.5885
9.49768	14.7139
9.98544	13.8657
10.0113	17.3155
10.5018	18.1845
11.0013	19.0638
10.0113	17.3155
11.0029	17.3079
12.0011	17.3355
11.0013	19.0638
11.4873	19.9291
12.0069	20.7946
11.0013	19.0638
11.4927	18.1882
12.0011	17.3355
11.0013	19.0638
12.0145	19.0419
12.9981	19.0643
12.0069	20.7946
12.5072	19.9318
12.9981	19.0643
12.0069	20.7946
13.0013	20.7987
13.9931	20.7844
12.9917	22.5163
13.5041	21.6435
13.9931	20.7844
12.9917	22.5163
14.0145	22.5314
15.0149	22.528
13.9853	24.2429
14.9859	24.2509
15.9886	24.2467
15.0102	25.9845
15.5021	25.1196
15.9886	24.2467
-13.0085	-25.9909
-12.5074	-25.1216
-11.9913	-24.2621
-13.0085	-25.9909
-11.9966	-25.9796
-10.998	-25.9894
-11.9913	-24.2621
-11.5086	-23.3834
-11.001	-22.5025
-11.001	-22.5025
-10.4886	-21.6471
-9.99479	-20.7715
-11.001	-22.5025
-10.0053	-22.5304
-8.99042	-22.5027
-9.99479	-20.7715
-9.48828	-19.9279
-9	-19.0526
-9.99479	-20.7715
-9.49579	-21.6551
-8.99042	-22.5027
-9	-19.0526
-8.49297	-18.1836
-8.01457	-17.3298
-9	-19.0526
-7.98858	-19.0503
-6.99193	-19.0672
-8.01457	-17.3298
-7.5116	-16.453
-7.01088	-15.5782
-8.01457	-17.3298
-7.50632	-18.1871
-6.99193	-19.0672
-8.01457	-17.3298
-7.01306	-17.3239
-6.0011	-17.3263
-7.01088	-15.5782
-6.49735	-14.716
-6.00064	-13.8421
-6.00064	-13.8421
-5.4865	-14.7294
-4.9927	-15.5894
-5	-12.1244
-4.51488	-11.2691
-3.98874	-10.4028
-5	-12.1244
-4.00169	-12.1302
-3.00823	-12.116
-3.98874	-10.4028
-3.48547	-9.52351
-2.98889	-8.65529
-3.98874	-10.4028
-3.49995	-11.2498
-3.00823	-12.116
-2.01247	-6.93377
-1.50331	-6.06502
-0.99806	-5.18675
-2.01247	-6.93377
-1.49533	-7.80269
-1.01459	-8.66144
-0.99806	-5.18675
-0.49844	-4.32135
-0.0148845	-3.46617
-0.99806	-5.18675
-0.497904	-6.06773
0.0134122	-6.93497
-0.99806	-5.18675
-0.0105881	-5.1848
0.991249	-5.19496
-0.0148845	-3.46617
0.509491	-2.58469
1.00473	-1.72006
-0.0148845	-3.46617
0.487211	-4.3193
0.991249	-5.19496
-0.0148845	-3.46617
0.992268	-3.47724
1.99708	-3.45674
1.00473	-1.72006
1.4951	-2.59897
1.99708	-3.45674
1.00473	-1.72006
1.99296	-1.72518
2.98574	-1.72278
1.98574	0.00596308
2.48793	0.855429
3.00172	1.74555
1.98574	0.00596308
2.5109	-0.866057
2.98574	-1.72278
3.00172	1.74555
3.99758	1.74019
4.99758	1.74038
3.99206	3.4543
5.00418	3.47235
5.99906	3.46404
5.0123	5.1923
5.48518	6.06052
6.0005	6.91815
5.0123	5.1923
5.49382	4.33252
5.99906	3.46404
5.0123	5.1923
5.98976	5.18688
6.99458	5.20291
6.0005	6.91815
6.48619	7.79279
6.99966	8.64615
6.0005	6.91815
6.49389	6.07588
6.99458	5.20291
6.0005	6.91815
6.98927	6.93591
7.99044	6.92208
6.99966	8.64615
7.48869	9.51447
8.00313	10.4013
6.99966	8.64615
8.00326	8.67517
8.99963	8.65375
8.00313	10.4013
8.48819	9.53574
8.99963	8.65375
8.00313	10.4013
9.01446	10.378
10.0096	10.3874
8.98855	12.1309
9.504	12.9922
9.98544	13.8657
8.98855	12.1309
9.50483	11.2524
10.0096	10.3874
8.98855	12.1309
9.9854	12.1369
10.9883	12.1145
9.98544	13.8657
10.5069	14.7122
11.0022	15.5861
9.98544	13.8657
10.4998	12.9754
10.9883	12.1145
9.98544	13.8657
11.012	13.8691
12.0022	13.8604
11.0022	15.5861
11.5045	16.4464
12.0011	17.3355
12.0011	17.3355
12.4995	18.1974
12.9981	19.0643
12.0011	17.3355
12.4963	16.4603
13.0079	15.5934
12.0011	17.3355
12.994	17.3139
13.998	17.3219
12.9981	19.0643
13.5034	19.9085
13.9931	20.7844
12.9981	19.0643
13.5129	18.1899
13.998	17.3219
12.9981	19.0643
14.0143	19.0569
14.9957	19.0447
13.9931	20.7844
14.4948	19.9087
14.9957	19.0447
15.0149	22.528
15.5009	23.3708
15.9886	24.2467
15.0149	22.528
15.499	21.6598
16.0142	20.7768
15.0149	22.528
15.9865	22.5106
16.9979	22.5075
15.9886	24.2467
16.4968	23.3913
16.9979	22.5075
-10.998	-25.9894
-10.0032	-25.9955
-9.01414	-25.9864
-9.99385	-24.2597
-9.51293	-25.1064
-9.01414	-25.9864
-9.99385	-24.2597
-8.99392	-24.2365
-8.01071	-24.2392
-8.99042	-22.5027
-8.48544	-21.6653
-8.00911	-20.7845
-8.99042	-22.5027
-8.48774	-23.3905
-8.01071	-24.2392
-8.99042	-22.5027
-7.98878	-22.5311
-6.99152	-22.5155
-8.00911	-20.7845
-7.51207	-19.9332
-6.99193	-19.0672
-8.00911	-20.7845
-7.51248	-21.6573
-6.99152	-22.5155
-8.00911	-20.7845
-6.99026	-20.7925
-6.00125	-20.7935
-6.99193	-19.0672
-6.50472	-19.9307
-6.00125	-20.7935
-6.99193	-19.0672
-6.00636	-19.0475
-5.00083	-19.0636
-6.0011	-17.3263
-5.0114	-17.3243
-4.0034	-17.3208
-4.9927	-15.5894
-4.50764	-14.708
-4.00655	-13.8416
-4.9927	-15.5894
-3.99965	-15.5826
-2.98762	-15.5753
-4.00655	-13.8416
-3.5015	-13.0037
-3.00823	-12.116
-4.00655	-13.8416
-3.4992	-14.7101
-2.98762	-15.5753
-4.00655	-13.8416
-3.00751	-13.8559
-1.99872	-13.8712
-3.00823	-12.116
-2.491	-11.2666
-2.00429	-10.4037
-3.00823	-12.116
-2.48783	-12.9813
-1.99872	-13.8712
-2.00429	-10.4037
-1.50589	-9.52075
-1.01459	-8.66144
-2.00429	-10.4037
-1.0028	-10.3878
-0.00323871	-10.3788
-1.01459	-8.66144
-0.505913	-7.78395
0.0134122	-6.93497
-1.01459	-8.66144
-0.507404	-9.51412
-0.00323871	-10.3788
0.0134122	-6.93497
0.504596	-6.05988
0.991249	-5.19496
0.0134122	-6.93497
0.488086	-7.78771
1.00389	-8.66132
0.0134122	-6.93497
0.999538	-6.94172
1.98608	-6.91551
0.991249	-5.19496
1.50607	-4.32738
1.99708	-3.45674
0.991249	-5.19496
1.99341	-5.18209
3.01489	-5.18329
1.99708	-3.45674
2.98955	-3.4705
3.99685	-3.47656
2.98574	-1.72278
3.48937	-0.867049
4.01497	-0.00244982
2.98574	-1.72278
3.51404	-2.6074
3.99685	-3.47656
4.01497	-0.00244982
4.4995	0.851937
4.99758	1.74038
4.99758	1.74038
5.51137	0.867863
5.98918	-0.0103603
4.99758	1.74038
5.9901	1.7452
6.99559	1.74417
5.99906	3.46404
6.4888	4.33297
6.99458	5.20291
5.99906	3.46404
6.48941	2.58823
6.99559	1.74417
6.99458	5.20291
7.50868	4.33153
7.99547	3.47141
7.99044	6.92208
8.49578	6.05497
8.99828	5.20179
7.99044	6.92208
9.00552	6.94175
9.99252	6.94029
8.99963	8.65375
9.50771	9.51384
10.0096	10.3874
8.99963	8.65375
9.51071	7.79681
9.99252	6.94029
10.0096	10.3874
10.4943	9.52582
11.0134	8.64949
10.9883	12.1145
11.9928	12.1378
13.0084	12.1099
12.0022	13.8604
12.4987	14.7238
13.0079	15.5934
12.0022	13.8604
13.0031	13.8569
14.006	13.8414
13.0079	15.5934
13.4917	16.4412
13.998	17.3219
13.0079	15.5934
13.5049	14.7279
14.006	13.8414
13.998	17.3219
14.4941	16.4537
15.0117	15.5841
13.998	17.3219
14.9897	17.3218
15.9886	17.3187
14.9957	19.0447
15.5052	18.1719
15.9886	17.3187
16.0142	20.7768
16.498	21.649
16.9979	22.5075
16.0142	20.7768
16.999	20.7893
17.9942	20.7925
16.9979	22.5075
17.9853	22.5287
19.0094	22.529
-10.0031	-27.7172
-9.49269	-26.8354
-9.01414	-25.9864
-10.0031	-27.7172
-8.98619	-27.7086
-7.99427	-27.7203
-9.01414	-25.9864
-8.49937	-25.1039
-8.01071	-24.2392
-9.01414	-25.9864
-8.51463	-26.8516
-7.99427	-27.7203
-9.01414	-25.9864
-8.00913	-25.9847
-6.98743	-25.9907
-8.01071	-24.2392
-7.50986	-23.3905
-6.99152	-22.5155
-8.01071	-24.2392
-7.49718	-25.1212
-6.98743	-25.9907
-8.01071	-24.2392
-6.99628	-24.235
-6.0055	-24.2562
-6.99152	-22.5155
-6.49822	-23.368
-6.0055	-24.2562
-6.00125	-20.7935
-5.49517	-19.9312
-5.00083	-19.0636
-6.00125	-20.7935
-5.49703	-21.6414
-5.01164	-22.5053
-5.00083	-19.0636
-4.49331	-18.1772
-4.0034	-17.3208
-5.00083	-19.0636
-4.50226	-19.9054
-3.98976	-20.7757
-4.0034	-17.3208
-3.49725	-18.1796
-3.01292	-19.0669
-2.98762	-15.5753
-2.50065	-14.7298
-1.99872	-13.8712
-2.98762	-15.5753
-2.50803	-16.4657
-2.00036	-17.3329
-1.99872	-13.8712
-1.49087	-14.7344
-1.00308	-15.5818
-0.990832	-12.1154
-0.491251	-11.2604
-0.00323871	-10.3788
-0.990832	-12.1154
-0.485657	-12.9988
0.00391174	-13.8513
-0.990832	-12.1154
-0.00204177	-12.1254
1.00069	-12.1381
-0.00323871	-10.3788
0.509123	-9.53122
1.00389	-8.66132
-0.00323871	-10.3788
0.493682	-11.2671
1.00069	-12.1381
1.98608	-6.91551
2.51247	-7.78369
3.00617	-8.65706
3.01489	-5.18329
3.49377	-4.32826
3.99685	-3.47656
3.01489	-5.18329
3.9868	-5.1812
4.98749	-5.18774
3.99685	-3.47656
4.98913	-3.45172
6.00323	-3.46207
5.00093	-1.72108
5.49145	-0.874764
5.98918	-0.0103603
5.98918	-0.0103603
6.50854	0.857788
6.99559	1.74417
5.98918	-0.0103603
6.5052	-0.877681
7.00152	-1.73826
6.99559	1.74417
7.98771	1.72378
8.9887	1.72172
7.99547	3.47141
8.50646	4.33324
8.99828	5.20179
7.99547	3.47141
8.99847	3.45546
10.0118	3.45792
8.99828	5.20179
9.48591	6.06209
9.99252	6.94029
8.99828	5.20179
9.51026	4.33845
10.0118	3.45792
9.99252	6.94029
10.5096	7.78616
11.0134	8.64949
11.0134	8.64949
11.5085	7.80824
12.007	6.9233
12.014	10.407
12.5079	9.53637
12.9981	8.66631
12.014	10.407
13.0123	10.4041
13.9878	10.3849
13.0084	12.1099
13.9962	12.1353
15.0021	12.112
14.006	13.8414
14.4985	12.9801
15.0021	12.112
15.0117	15.5841
15.509	16.4422
15.9886	17.3187
15.0117	15.5841
16.0107	15.5783
17	15.5885
15.9886	17.3187
16.9959	17.3216
18.007	17.3239
16.9934	19.0482
17.493	19.9327
17.9942	20.7925
16.9934	19.0482
17.4999	18.1859
18.007	17.3239
17.9942	20.7925
18.4886	21.6378
19.0094	22.529
17.9942	20.7925
19.0145	20.7768
20.0026	20.7971
-7.99427	-27.7203
-7.5096	-26.8582
-6.98743	-25.9907
-6.98743	-25.9907
-6.48613	-25.1199
-6.0055	-24.2562
-6.98743	-25.9907
-5.98881	-25.9725
-4.99947	-25.9887
-6.0055	-24.2562
-4.99777	-24.26
-4.01135	-24.2602
-5.01164	-22.5053
-4.4921	-21.6475
-3.98976	-20.7757
-5.01164	-22.5053
-3.98558	-22.5315
-3.00438	-22.5205
-3.98976	-20.7757
-3.48897	-19.912
-3.01292	-19.0669
-3.98976	-20.7757
-2.9994	-20.7754
-1.99473	-20.7808
-2.00036	-17.3329
-1.50819	-18.1999
-0.995632	-19.0478
-2.00036	-17.3329
-0.999796	-17.3194
-0.00500676	-17.3351
-1.00308	-15.5818
-0.508624	-16.4535
-0.00500676	-17.3351
0.00391174	-13.8513
0.485202	-14.7129
0.996995	-15.5847
0.00391174	-13.8513
1.01139	-13.8543
1.98828	-13.8478
1.00069	-12.1381
1.51125	-11.2527
2.01329	-10.3838
1.00069	-12.1381
1.50139	-13.0012
1.98828	-13.8478
2.01329	-10.3838
3.01033	-10.4071
3.98742	-10.385
3.00617	-8.65706
3.49258	-7.80519
4.01456	-6.9301
3.00617	-8.65706
3.98685	-8.66066
5.0054	-8.65625
4.01456	-6.9301
5.0149	-6.9349
6.01457	-6.92554
4.98749	-5.18774
5.48918	-6.06994
6.01457	-6.92554
4.98749	-5.18774
6.00789	-5.20329
7.01468	-5.1938
7.00152	-1.73826
7.50997	-0.853193
8	0
7.00152	-1.73826
7.50504	-2.58518
8.01461	-3.46422
7.00152	-1.73826
7.98725	-1.73658
9.0101	-1.74075
8	0
8.49615	0.858199
8.9887	1.72172
8	0
8.48736	-0.863424
9.0101	-1.74075
8	0
9.01021	0.00792282
9.99654	-0.0147412
8.9887	1.72172
9.48556	2.59239
10.0118	3.45792
8.9887	1.72172
9.99055	1.72239
11.0013	1.74578
10.0118	3.45792
10.5058	4.33705
11.0106	5.19991
12.007	6.9233
12.506	6.0718
12.9991	5.18687
12.9981	8.66631
13.5116	9.51491
13.9878	10.3849
12.9981	8.66631
13.5085	7.80266
13.9969	6.93658
12.9981	8.66631
14.0124	8.65457
14.9924	8.64968
13.9878	10.3849
14.5136	11.2685
15.0021	12.112
13.9878	10.3849
14.9855	10.4039
16.0055	10.404
15.0021	12.112
15.4956	12.9844
16.0138	13.8617
15.0021	12.112
15.5078	11.262
16.0055	10.404
15.0021	12.112
15.9944	12.1267
17.0095	12.1157
16.0138	13.8617
16.4943	14.7148
17	15.5885
16.0138	13.8617
16.485	13.004
17.0095	12.1157
16.0138	13.8617
17.0052	13.8476
17.9991	13.8435
17	15.5885
17.4894	16.4476
18.007	17.3239
17	15.5885
17.4907	14.7301
17.9991	13.8435
18.007	17.3239
18.5017	16.4439
18.9977	15.5879
18.007	17.3239
18.9879	17.3173
20.0037	17.3298
18.99	19.0486
19.4937	19.9053
20.0026	20.7971
18.99	19.0486
19.5047	18.1737
20.0037	17.3298
18.99	19.0486
20.001	19.0652
21.015	19.058
-5.98609	-27.7207
-5.48741	-26.8593
-4.99947	-25.9887
-5.98609	-27.7207
-5.49761	-28.5799
-4.99395	-29.4484
-5.98609	-27.7207
-5.01434	-27.7218
-3.99515	-27.7113
-4.99947	-25.9887
-4.4982	-25.1228
-4.01135	-24.2602
-4.99947	-25.9887
-3.98917	-25.9829
-3.00524	-25.995
-4.01135	-24.2602
-3.50888	-23.3868
-3.00438	-22.5205
-4.01135	-24.2602
-3.51436	-25.1297
-3.00524	-25.995
-4.01135	-24.2602
-3.01041	-24.2522
-1.99105	-24.2407
-3.00438	-22.5205
-2.0149	-22.5023
-0.987501	-22.5297
-1.99473	-20.7808
-1.50339	-19.9179
-0.995632	-19.0478
-1.99473	-20.7808
-1.50155	-21.6576
-0.987501	-22.5297
-0.995632	-19.0478
-0.508375	-18.1956
-0.00500676	-17.3351
-0.995632	-19.0478
-0.50024	-19.9195
0.00105683	-20.7769
-0.995632	-19.0478
0.00147644	-19.0396
1.00073	-19.0521
-0.00500676	-17.3351
0.510577	-16.4594
0.996995	-15.5847
-0.00500676	-17.3351
0.500448	-18.1908
1.00073	-19.0521
-0.00500676	-17.3351
0.986304	-17.3186
1.98592	-17.33
0.996995	-15.5847
1.50198	-14.7098
1.98828	-13.8478
0.996995	-15.5847
2.00095	-15.5819
3.00189	-15.603
3.98742	-10.385
4.50437	-9.51993
5.0054	-8.65625
5.0054	-8.65625
5.49724	-7.80723
6.01457	-6.92554
5.0054	-8.65625
6.00585	-8.64862
6.98971	-8.66182
8.01461	-3.46422
8.49118	-2.60317
9.0101	-1.74075
8.01461	-3.46422
8.50312	-4.32987
8.98911	-5.18347
8.01461	-3.46422
8.999	-3.47595
9.99731	-3.46157
9.0101	-1.74075
9.49096	-0.877088
9.99654	-0.0147412
9.0101	-1.74075
9.99449	-1.7405
10.9982	-1.73777
9.99654	-0.0147412
10.5133	0.875458
11.0013	1.74578
11.0013	1.74578
11.4997	2.60045
11.9923	3.46954
11.0013	1.74578
11.4872	0.859784
12.0066	-0.00963739
11.0013	1.74578
12.0068	1.73398
12.9863	1.74258
12.9991	5.18687
13.5118	4.32708
13.9997	3.45522
13.9969	6.93658
14.5132	6.06006
14.9903	5.20044
13.9969	6.93658
14.9962	6.93371
15.9995	6.92124
14.9924	8.64968
15.5103	9.51317
16.0055	10.404
16.0055	10.404
16.5045	11.2453
17.0095	12.1157
16.0055	10.404
16.4915	9.5184
17.0104	8.66692
17.0095	12.1157
17.4932	11.2725
18.0061	10.3793
17.9991	13.8435
18.49	12.9834
19.0062	12.1278
17.9991	13.8435
18.9864	13.8595
20.001	13.8689
20.0037	17.3298
20.4949	18.1975
21.015	19.058
20.0037	17.3298
20.4893	16.4684
21.0005	15.5937
20.0037	17.3298
20.9992	17.3249
21.9873	17.3129
21.015	19.058
21.4954	18.1956
21.9873	17.3129
21.015	19.058
22.0048	19.0523
23.0009	19.0612
-4.99395	-29.4484
-4.48642	-28.5815
-3.99515	-27.7113
-4.99395	-29.4484
-4.00356	-29.4454
-2.99918	-29.4593
-3.99515	-27.7113
-3.50622	-28.5742
-2.99918	-29.4593
-3.99515	-27.7113
-3.01428	-27.7088
-2.00415	-27.7136
-3.00524	-25.995
-2.50655	-25.1109
-1.99105	-24.2407
-3.00524	-25.995
-2.49934	-26.8423
-2.00415	-27.7136
-3.00524	-25.995
-2.00822	-25.9678
-0.991348	-25.9939
-1.99105	-24.2407
-1.48588	-23.3956
-0.987501	-22.5297
-0.987501	-22.5297
-0.509089	-21.6449
0.00105683	-20.7769
-0.987501	-22.5297
-0.50758	-23.392
0.00181974	-24.2504
0.00105683	-20.7769
0.500098	-19.9301
1.00073	-19.0521
0.00105683	-20.7769
0.501829	-21.6554
1.00576	-22.5282
0.00105683	-20.7769
1.0135	-20.7873
2.00864	-20.7903
1.00073	-19.0521
1.48791	-18.1799
1.98592	-17.33
1.98592	-17.33
2.49019	-16.4608
3.00189	-15.603
1.98592	-17.33
2.50726	-18.1828
3.01454	-19.038
4.00066	-13.8434
4.48911	-14.7336
5.00133	-15.5994
4.00066	-13.8434
4.99677	-13.8588
5.98938	-13.859
5.0146	-12.1328
5.50504	-11.2548
6.00774	-10.3915
5.0146	-12.1328
6.00035	-12.1189
6.98663	-12.1365
6.00774	-10.3915
6.49901	-9.53742
6.98971	-8.66182
6.00774	-10.3915
6.49901	-11.2624
6.98663	-12.1365
6.00774	-10.3915
7.00945	-10.3864
7.99379	-10.4008
6.98971	-8.66182
7.50901	-7.78394
8.01081	-6.91478
6.98971	-8.66182
7.99977	-8.67516
8.98817	-8.66497
8.01081	-6.91478
8.50204	-6.07112
8.98911	-5.18347
8.01081	-6.91478
8.51148	-7.80159
8.98817	-8.66497
8.98911	-5.18347
9.51239	-4.32831
9.99731	-3.46157
9.99731	-3.46157
10.4905	-2.60947
10.9982	-1.73777
9.99731	-3.46157
10.49	-4.31963
10.9941	-5.20749
9.99731	-3.46157
11.0051	-3.47026
12.0017	-3.45195
10.9982	-1.73777
11.5023	-2.58562
12.0017	-3.45195
10.9982	-1.73777
11.9904	-1.73395
13.0028	-1.73802
12.0066	-0.00963739
12.9925	-0.014946
13.9948	0.00879469
12.9863	1.74258
13.5075	2.59925
13.9997	3.45522
12.9863	1.74258
13.4864	0.85164
13.9948	0.00879469
12.9863	1.74258
14.0027	1.74195
15.0064	1.7304
13.9997	3.45522
14.5092	4.33422
14.9903	5.20044
14.9903	5.20044
15.5123	4.32112
15.986	3.46463
14.9903	5.20044
15.9919	5.18361
16.985	5.20754
15.9995	6.92124
16.4923	7.80458
17.0104	8.66692
15.9995	6.92124
16.9867	6.9401
18.006	6.93915
17.0104	8.66692
17.989	8.66244
18.9965	8.66409
18.0061	10.3793
18.5143	11.2561
19.0062	12.1278
18.0061	10.3793
18.9861	10.3986
20.0142	10.4055
19.0062	12.1278
19.5075	11.2495
20.0142	10.4055
19.0062	12.1278
19.9876	12.1119
21.0105	12.1288
20.001	13.8689
20.5041	13.0043
21.0105	12.1288
21.0005	15.5937
21.5066	16.4542
21.9873	17.3129
21.0005	15.5937
21.4917	14.7253
22.01	13.8571
21.9873	17.3129
22.4866	18.1871
23.0009	19.0612
21.9873	17.3129
22.5111	16.4609
22.9983	15.5985
-2.99918	-29.4593
-2.0094	-29.433
-0.999206	-29.4572
-2.00415	-27.7136
-1.49398	-28.5769
-0.999206	-29.4572
-2.00415	-27.7136
-1.0006	-27.7128
-0.00874998	-27.7049
-0.991348	-25.9939
-0.489221	-25.1075
0.00181974	-24.2504
-0.991348	-25.9939
-0.502296	-26.8487
-0.00874998	-27.7049
-0.991348	-25.9939
-0.00217809	-25.9818
0.986628	-25.9911
0.00181974	-24.2504
0.999123	-24.2386
1.98745	-24.2571
1.00576	-22.5282
1.49183	-21.6494
2.00864	-20.7903
1.00576	-22.5282
1.99041	-22.5072
2.99507	-22.5153
3.01454	-19.038
3.50354	-18.1909
3.98833	-17.3316
3.01454	-19.038
4.00997	-19.0556
4.99563	-19.0612
3.98833	-17.3316
5.00314	-17.3108
6.00432	-17.3095
5.00133	-15.5994
6.00972	-15.5932
7.01244	-15.5773
5.98938	-13.859
6.50977	-14.7194
7.01244	-15.5773
5.98938	-13.859
7.01396	-13.8614
8.01131	-13.8708
6.98663	-12.1365
7.50683	-12.9985
8.01131	-13.8708
7.99379	-10.4008
8.9953	-10.3818
10.0005	-10.381
8.98817	-8.66497
9.512	-7.80145
9.99953	-6.92854
8.98817	-8.66497
9.49574	-9.52469
10.0005	-10.381
8.98817	-8.66497
10.0126	-8.65044
10.9881	-8.65875
9.99953	-6.92854
10.5056	-6.05788
10.9941	-5.20749
10.9941	-5.20749
11.5025	-4.32365
12.0017	-3.45195
10.9941	-5.20749
11.5013	-6.06487
11.9945	-6.93599
12.0017	-3.45195
12.499	-4.32288
12.9898	-5.19147
12.0017	-3.45195
12.998	-3.46867
14.0074	-3.46263
13.0028	-1.73802
13.5053	-0.856815
13.9948	0.00879469
13.0028	-1.73802
13.498	-2.60597
14.0074	-3.46263
13.0028	-1.73802
14.0017	-1.71837
15.0086	-1.74113
13.9948	0.00879469
14.5054	-0.874466
15.0086	-1.74113
13.9948	0.00879469
14.9959	-0.000333175
16.0039	0.00600191
15.0064	1.7304
15.4917	0.853442
16.0039	0.00600191
15.986	3.46463
16.4926	4.33201
16.985	5.20754
15.986	3.46463
16.4888	2.59208
16.9943	1.73034
16.985	5.20754
17.5018	4.31956
17.9964	3.45897
16.985	5.20754
18.0073	5.19725
19.0039	5.19056
18.006	6.93915
18.498	6.06652
19.0039	5.19056
18.006	6.93915
18.9952	6.91749
20	6.91678
18.9965	8.66409
19.501	9.51444
20.0142	10.4055
18.9965	8.66409
19.4922	7.79116
20	6.91678
20.0142	10.4055
21.0006	10.4005
22.0121	10.3888
21.0105	12.1288
21.4974	12.9832
22.01	13.8571
22.01	13.8571
22.4957	14.7167
22.9983	15.5985
22.9983	15.5985
24.0025	15.5742
24.9973	15.5902
-0.999206	-29.4572
-0.503445	-28.5701
-0.00874998	-27.7049
-0.999206	-29.4572
-0.00277457	-29.4372
1.00567	-29.4592
-0.00874998	-27.7049
0.498889	-26.8324
0.986628	-25.9911
-0.00874998	-27.7049
0.514374	-28.5754
1.00567	-29.4592
0.986628	-25.9911
1.50402	-25.126
1.98745	-24.2571
0.986628	-25.9911
1.50339	-26.8604
1.98617	-27.7187
0.986628	-25.9911
1.99688	-25.9803
3.00528	-25.9875
1.98745	-24.2571
2.49613	-25.1194
3.00528	-25.9875
2.99507	-22.5153
3.51294	-21.6376
4.00846	-20.7784
2.99507	-22.5153
3.48578	-23.3818
4.00009	-24.2376
4.00846	-20.7784
4.48785	-21.6474
5.01262	-22.5163
4.00846	-20.7784
5.01003	-20.7881
6.01367	-20.787
4.99563	-19.0612
5.50238	-18.1906
6.00432	-17.3095
4.99563	-19.0612
5.49333	-19.9256
6.01367	-20.787
4.99563	-19.0612
5.99466	-19.0454
7.00266	-19.0589
6.00432	-17.3095
6.50691	-16.4535
7.01244	-15.5773
6.00432	-17.3095
6.49437	-18.1912
7.00266	-19.0589
7.01244	-15.5773
7.50236	-14.7312
8.01131	-13.8708
9.00831	-12.1162
9.50796	-11.2652
10.0005	-10.381
9.00831	-12.1162
9.488	-12.99
10.0111	-13.8633
10.0005	-10.381
10.5097	-9.52768
10.9881	-8.65875
10.0005	-10.381
10.4862	-11.2529
10.9972	-12.1224
10.0005	-10.381
10.9913	-10.4028
12.0028	-10.3861
10.9881	-8.65875
12.0076	-8.64934
12.9988	-8.66208
11.9945	-6.93599
12.4939	-6.06766
12.9898	-5.19147
11.9945	-6.93599
13.006	-6.91438
13.9981	-6.94308
12.9898	-5.19147
14.0038	-5.20398
14.9872	-5.18345
14.0074	-3.46263
14.4884	-4.33681
14.9872	-5.18345
14.0074	-3.46263
14.9984	-3.46659
15.9971	-3.46447
15.0086	-1.74113
15.988	-1.73093
17.0073	-1.72474
16.0039	0.00600191
16.4966	-0.859079
17.0073	-1.72474
16.9943	1.73034
17.4976	0.857187
18.0041	-0.0124168
16.9943	1.73034
18.0069	1.71934
19.0068	1.73147
19.0039	5.19056
19.5134	4.33744
20.0101	3.4652
19.0039	5.19056
19.9999	5.19422
20.9921	5.19134
20	6.91678
20.5131	7.79012
20.9983	8.6567
20.9983	8.6567
21.5058	7.80604
21.9964	6.92746
20.9983	8.6567
21.986	8.65745
22.9882	8.67436
22.0121	10.3888
22.49	11.245
23.0035	12.1215
22.0121	10.3888
22.5034	9.53444
22.9882	8.67436
22.0121	10.3888
23.003	10.3811
23.9967	10.3944
23.0035	12.1215
23.4916	12.9774
23.9971	13.8445
23.0035	12.1215
23.5094	11.2551
23.9967	10.3944
23.0035	12.1215
24.0035	12.118
25.0129	12.125
23.9971	13.8445
24.4936	14.7186
24.9973	15.5902
24.9973	15.5902
25.4914	14.7153
26.006	13.8667
1.00567	-29.4592
1.50322	-28.5678
1.98617	-27.7187
1.98617	-27.7187
2.49172	-26.8602
3.00528	-25.9875
3.00528	-25.9875
3.5099	-25.1092
4.00009	-24.2376
4.00009	-24.2376
4.48847	-23.3919
5.01262	-22.5163
4.00009	-24.2376
4.5099	-25.1075
5	-25.9868
4.00009	-24.2376
5.01212	-24.2344
6.01117	-24.2485
5.01262	-22.5163
5.51409	-21.6451
6.01367	-20.787
5.01262	-22.5163
5.98992	-22.5143
7.01035	-22.5233
6.01367	-20.787
7.01334	-20.7711
8.0138	-20.7726
7.00266	-19.0589
7.50671	-19.9056
8.0138	-20.7726
7.00266	-19.0589
8.00498	-19.0536
9.00447	-19.0579
7.99558	-17.3347
8.49628	-16.4477
9.0109	-15.5777
7.99558	-17.3347
8.50935	-18.1788
9.00447	-19.0579
7.99558	-17.3347
8.99252	-17.3059
10.0044	-17.3276
9.0109	-15.5777
10.0063	-15.5908
10.9884	-15.5923
10.0111	-13.8633
10.4856	-12.9772
10.9972	-12.1224
10.0111	-13.8633
10.5125	-14.732
10.9884	-15.5923
10.0111	-13.8633
10.9859	-13.854
11.9964	-13.8416
10.9972	-12.1224
11.503	-11.2666
12.0028	-10.3861
10.9972	-12.1224
11.9929	-12.1113
12.9915	-12.1305
12.0028	-10.3861
12.4938	-11.2584
12.9915	-12.1305
12.0028	-10.3861
13.0108	-10.3792
13.9953	-10.3803
13.9981	-6.94308
14.5037	-6.06709
14.9872	-5.18345
14.9872	-5.18345
15.4883	-4.33659
15.9971	-3.46447
15.9971	-3.46447
16.4979	-2.59153
17.0073	-1.72474
15.9971	-3.46447
16.5093	-4.33065
16.9911	-5.19332
17.0073	-1.72474
17.4991	-0.855143
18.0041	-0.0124168
17.0073	-1.72474
17.9928	-1.72011
19.0076	-1.72461
18.0041	-0.0124168
18.5118	0.8714
19.0068	1.73147
18.0041	-0.0124168
19.0075	-0.014505
20.0005	0.00413452
19.0068	1.73147
19.5136	2.5868
20.0101	3.4652
19.0068	1.73147
19.5068	0.857739
20.0005	0.00413452
19.0068	1.73147
19.987	1.72392
20.9953	1.73322
20.0101	3.4652
20.5148	2.59809
20.9953	1.73322
20.0101	3.4652
21.0092	3.45246
22.006	3.47614
21.9964	6.92746
22.4903	7.79632
22.9882	8.67436
22.9882	8.67436
23.4938	9.52988
23.9967	10.3944
23.9967	10.3944
24.4872	9.53431
24.9937	8.65973
23.9967	10.3944
25.009	10.3977
25.9891	10.4045
25.0129	12.125
25.4894	11.2592
25.9891	10.4045
26.006	13.8667
26.5034	12.9785
26.9953	12.1323
3.00743	-29.4328
3.4917	-28.5932
3.98798	-27.722
3.00743	-29.4328
3.99381	-29.4571
4.9945	-29.438
5	-25.9868
5.5003	-25.1151
6.01117	-24.2485
5	-25.9868
5.50939	-26.8389
6.01273	-27.7254
5	-25.9868
6.00384	-25.9726
7.00174	-25.987
6.01117	-24.2485
6.4904	-25.1118
7.00174	-25.987
6.01117	-24.2485
6.9902	-24.2445
7.98748	-24.2348
7.01035	-22.5233
7.51152	-23.3934
7.98748	-24.2348
7.01035	-22.5233
7.98901	-22.5236
9.01087	-22.504
8.0138	-20.7726
8.5054	-19.9299
9.00447	-19.0579
8.0138	-20.7726
8.49091	-21.6398
9.01087	-22.504
8.0138	-20.7726
8.98699	-20.7786
10.0103	-20.7935
9.00447	-19.0579
9.50978	-18.1984
10.0044	-17.3276
9.00447	-19.0579
9.502	-19.9286
10.0103	-20.7935
10.9884	-15.5923
11.5116	-16.445
12.0136	-17.3103
10.9884	-15.5923
12.0115	-15.595
13.0048	-15.5816
11.9964	-13.8416
12.5078	-14.7081
13.0048	-15.5816
12.9915	-12.1305
14.0063	-12.1214
15.0053	-12.1165
13.9953	-10.3803
14.4889	-9.51658
14.987	-8.66888
13.9953	-10.3803
14.9946	-10.4044
16.0143	-10.395
14.987	-8.66888
15.4918	-9.52215
16.0143	-10.395
14.987	-8.66888
15.99	-8.65437
16.9896	-8.64682
16.0014	-6.9162
16.5082	-7.80014
16.9896	-8.64682
16.0014	-6.9162
16.9935	-6.9168
17.9926	-6.94089
16.9911	-5.19332
17.5113	-6.05925
17.9926	-6.94089
18.0011	-3.47473
18.5117	-2.58843
19.0076	-1.72461
18.0011	-3.47473
18.4866	-4.33622
18.9928	-5.19547
18.0011	-3.47473
18.9933	-3.46929
20	-3.4641
19.0076	-1.72461
19.9912	-1.72742
21.0108	-1.73838
20.0005	0.00413452
20.5064	0.853332
20.9953	1.73322
20.0005	0.00413452
20.49	-0.87076
21.0108	-1.73838
20.9953	1.73322
21.4915	0.879319
21.9855	-0.00437469
20.9953	1.73322
22.0066	1.72359
22.9867	1.71892
23.9933	6.92713
24.4933	7.7925
24.9937	8.65973
23.9933	6.92713
24.5072	6.05059
25.013	5.19383
23.9933	6.92713
24.996	6.92142
25.9928	6.91415
24.9937	8.65973
25.4872	7.7862
25.9928	6.91415
24.9937	8.65973
25.9937	8.67147
27.0062	8.67167
25.9891	10.4045
26.491	9.53599
27.0062	8.67167
4.9945	-29.438
5.50875	-28.5845
6.01273	-27.7254
6.01273	-27.7254
6.50138	-26.8586
7.00174	-25.987
6.01273	-27.7254
6.99035	-27.7117
7.99564	-27.7068
7.00174	-25.987
8.00005	-25.9757
9.01457	-25.9862
7.98748	-24.2348
8.49971	-23.3795
9.01087	-22.504
7.98748	-24.2348
8.51238	-25.1049
9.01457	-25.9862
9.01087	-22.504
9.51307	-21.6433
10.0103	-20.7935
9.01087	-22.504
9.51227	-23.3826
10.0121	-24.2481
10.0103	-20.7935
10.5116	-19.9076
11.0113	-19.0476
10.0103	-20.7935
10.5077	-21.6623
11.0118	-22.5157
11.0113	-19.0476
11.4964	-18.1946
12.0136	-17.3103
11.0113	-19.0476
11.9875	-19.0647
12.9862	-19.04
12.0136	-17.3103
12.5009	-16.4548
13.0048	-15.5816
12.0136	-17.3103
13.014	-17.3094
14.0068	-17.316
13.0048	-15.5816
13.4927	-14.7267
14.0114	-13.8419
13.0048	-15.5816
14.0043	-15.5779
15.0104	-15.5823
14.0114	-13.8419
14.4892	-12.9949
15.0053	-12.1165
14.0114	-13.8419
14.4873	-14.7329
15.0104	-15.5823
14.0114	-13.8419
14.9894	-13.8508
16.0043	-13.8464
15.0053	-12.1165
15.4991	-11.2444
16.0143	-10.395
15.0053	-12.1165
15.9958	-12.1317
17.0015	-12.132
16.0143	-10.395
17.0045	-10.3941
17.9882	-10.4063
16.9896	-8.64682
17.5022	-7.78188
17.9926	-6.94089
16.9896	-8.64682
17.5084	-9.52046
17.9882	-10.4063
17.9926	-6.94089
18.5036	-6.07506
18.9928	-5.19547
18.9928	-5.19547
19.5003	-6.05812
20.0058	-6.93885
20	-3.4641
20.5004	-2.606
21.0108	-1.73838
20	-3.4641
20.4942	-4.34247
20.994	-5.19565
21.0108	-1.73838
21.5139	-0.871032
21.9855	-0.00437469
21.0108	-1.73838
21.4877	-2.59323
21.9912	-3.4657
21.9855	-0.00437469
22.4917	0.880532
22.9867	1.71892
21.9855	-0.00437469
22.4994	-0.862118
23.007	-1.73394
21.9855	-0.00437469
23.0005	-0.00327545
24.0028	-0.00971468
22.9867	1.71892
23.5003	0.880767
24.0028	-0.00971468
24.0066	3.45862
24.5105	2.59587
25.0018	1.73878
24.0066	3.45862
25.0118	3.45643
25.9879	3.47235
25.013	5.19383
25.4888	6.071
25.9928	6.91415
25.9928	6.91415
26.5094	7.78985
27.0062	8.67167
25.9928	6.91415
26.4873	6.06755
26.9973	5.1847
25.9928	6.91415
27.01	6.91844
28.0091	6.91584
27.0062	8.67167
27.5005	9.5218
28.0054	10.3912
9.01457	-25.9862
9.98961	-25.9926
10.9872	-25.9702
10.0121	-24.2481
10.5148	-23.3754
11.0118	-22.5157
10.0121	-24.2481
11.0093	-24.246
12.0049	-24.2561
11.0118	-22.5157
11.9883	-22.5092
12.9941	-22.506
11.9993	-20.7819
12.5113	-19.9207
12.9862	-19.04
11.9993	-20.7819
12.5061	-21.6552
12.9941	-22.506
11.9993	-20.7819
13.0059	-20.7723
14.0082	-20.7932
12.9862	-19.04
13.493	-18.1718
14.0068	-17.316
12.9862	-19.04
13.9977	-19.0636
14.9951	-19.0422
14.0068	-17.316
14.502	-16.446
15.0104	-15.5823
14.0068	-17.316
14.4891	-18.1878
14.9951	-19.0422
14.0068	-17.316
15.0072	-17.3242
16.013	-17.3128
15.0104	-15.5823
15.4999	-14.7363
16.0043	-13.8464
15.0104	-15.5823
15.4991	-16.4419
16.013	-17.3128
15.0104	-15.5823
16.0099	-15.5771
17.011	-15.588
16.0043	-13.8464
16.5022	-12.9994
17.0015	-12.132
16.0043	-13.8464
16.9856	-13.867
18.0074	-13.8682
17.0015	-12.132
18.0056	-12.1392
18.9961	-12.1131
17.9882	-10.4063
18.5094	-9.52118
19.0003	-8.6496
17.9882	-10.4063
18.4942	-11.2702
18.9961	-12.1131
17.9882	-10.4063
18.9987	-10.3992
19.9978	-10.3864
19.0003	-8.6496
20.0109	-8.65215
20.989	-8.66944
20.0058	-6.93885
20.5089	-6.0496
20.994	-5.19565
20.0058	-6.93885
20.9977	-6.92473
21.9933	-6.92967
21.9912	-3.4657
22.5074	-2.60083
23.007	-1.73394
23.007	-1.73394
23.5009	-0.868573
24.0028	-0.00971468
23.007	-1.73394
23.4944	-2.59391
24.0072	-3.4786
23.007	-1.73394
23.9997	-1.72499
25.0068	-1.73484
24.0028	-0.00971468
24.4895	0.874729
25.0018	1.73878
24.0028	-0.00971468
24.5018	-0.879287
25.0068	-1.73484
25.0018	1.73878
25.4946	2.59762
25.9879	3.47235
25.0018	1.73878
25.4876	0.876383
25.9933	0.00815903
25.0018	1.73878
26.013	1.71722
27.0025	1.74383
25.9879	3.47235
26.5022	2.60392
27.0025	1.74383
26.9973	5.1847
27.9967	5.20448
29.0005	5.21076
10.9872	-25.9702
11.9949	-25.9873
13.0132	-25.9809
12.0049	-24.2561
12.4863	-23.3684
12.9941	-22.506
12.0049	-24.2561
12.499	-25.1061
13.0132	-25.9809
12.0049	-24.2561
13.0048	-24.2571
13.9997	-24.2377
14.0082	-20.7932
14.5125	-19.9054
14.9951	-19.0422
14.0082	-20.7932
14.9944	-20.7952
16.0008	-20.7986
14.9951	-19.0422
15.4895	-18.1937
16.013	-17.3128
14.9951	-19.0422
15.4918	-19.9212
16.0008	-20.7986
14.9951	-19.0422
15.9887	-19.0557
17.0101	-19.0443
16.013	-17.3128
16.4965	-16.4606
17.011	-15.588
16.013	-17.3128
16.4999	-18.1911
17.0101	-19.0443
16.013	-17.3128
16.9969	-17.3336
17.9996	-17.3331
17.011	-15.588
17.4938	-14.7084
18.0074	-13.8682
18.0074	-13.8682
18.5012	-14.7249
18.9948	-15.594
19.9978	-10.3864
20.4927	-9.52333
20.989	-8.66944
19.9978	-10.3864
20.5049	-11.2673
20.9983	-12.1183
19.9978	-10.3864
21.0091	-10.3948
22.0088	-10.3863
20.989	-8.66944
21.4973	-7.80733
21.9933	-6.92967
20.989	-8.66944
21.9941	-8.64642
22.9925	-8.661
21.9933	-6.92967
22.5139	-7.79983
22.9925	-8.661
21.9933	-6.92967
22.9875	-6.9262
24.0046	-6.91702
23.0083	-5.19782
23.4961	-6.07525
24.0046	-6.91702
24.0072	-3.4786
24.4912	-2.59591
25.0068	-1.73484
25.0068	-1.73484
25.4947	-0.879473
25.9933	0.00815903
25.0068	-1.73484
26.012	-1.72581
27.0003	-1.72055
25.9933	0.00815903
26.5085	-0.864472
27.0003	-1.72055
25.9933	0.00815903
26.991	-0.00420735
28	0.00194439
27.9876	3.46041
28.4986	4.3174
29.0005	5.21076
27.9876	3.46041
28.4999	2.60384
29.005	1.74092
13.0132	-25.9809
13.5023	-25.1241
13.9997	-24.2377
13.9997	-24.2377
14.4881	-23.3965
14.9884	-22.5048
13.9997	-24.2377
14.4936	-25.1057
15.0129	-25.9898
14.9884	-22.5048
16.0141	-22.5281
16.9923	-22.5047
16.0008	-20.7986
16.4913	-19.9151
17.0101	-19.0443
17.0101	-19.0443
17.5142	-18.187
17.9996	-17.3331
17.0101	-19.0443
17.5009	-19.9242
17.9983	-20.7925
17.0101	-19.0443
17.9909	-19.0578
19.0125	-19.0525
17.9996	-17.3331
18.4871	-16.4447
18.9948	-15.594
17.9996	-17.3331
18.5076	-18.1862
19.0125	-19.0525
18.9948	-15.594
19.4888	-16.4681
20.0088	-17.3076
18.9948	-15.594
20.012	-15.5954
21.008	-15.5801
20.0133	-13.8566
20.5118	-14.712
21.008	-15.5801
20.9983	-12.1183
21.497	-11.2541
22.0088	-10.3863
22.0088	-10.3863
23.0008	-10.3992
24.0027	-10.3837
22.9925	-8.661
23.4953	-7.78016
24.0046	-6.91702
22.9925	-8.661
23.5012	-9.52554
24.0027	-10.3837
24.0046	-6.91702
24.512	-7.78886
25.0056	-8.6682
24.9946	-5.18284
25.4989	-4.32451
25.9967	-3.47835
24.9946	-5.18284
25.5092	-6.05332
25.9961	-6.92347
25.9967	-3.47835
26.5013	-4.32956
26.9886	-5.18727
25.9967	-3.47835
26.9994	-3.45941
27.9979	-3.45694
27.0003	-1.72055
27.4936	-0.872281
28	0.00194439
28	0.00194439
28.511	0.852361
29.005	1.74092
15.0129	-25.9898
15.5051	-25.1195
15.9878	-24.2424
15.9878	-24.2424
16.5066	-23.3814
16.9923	-22.5047
16.9923	-22.5047
17.5042	-21.6632
17.9983	-20.7925
17.9983	-20.7925
18.5021	-19.9302
19.0125	-19.0525
17.9983	-20.7925
18.99	-20.785
20.0004	-20.771
19.0125	-19.0525
19.4918	-19.9095
20.0004	-20.771
19.0125	-19.0525
20.0042	-19.0623
21.0135	-19.0601
20.0088	-17.3076
20.4975	-16.4659
21.008	-15.5801
20.0088	-17.3076
21.0127	-17.3144
21.9859	-17.3206
21.008	-15.5801
21.5109	-16.4441
21.9859	-17.3206
21.9859	-13.8665
22.4909	-12.9755
22.9983	-12.1106
21.9859	-13.8665
22.5125	-14.7138
22.9876	-15.579
22.9983	-12.1106
23.513	-11.27
24.0027	-10.3837
24.0027	-10.3837
24.5049	-9.53934
25.0056	-8.6682
24.0027	-10.3837
25.0067	-10.3953
25.9864	-10.3892
25.0056	-8.6682
25.5057	-7.78057
25.9961	-6.92347
25.0056	-8.6682
25.5114	-9.52239
25.9864	-10.3892
25.9961	-6.92347
26.9936	-6.91386
27.9879	-6.91441
26.9886	-5.18727
28.0123	-5.18179
28.9937	-5.1847
27.9979	-3.45694
28.4998	-2.59274
29.0062	-1.74302
20.0004	-20.771
20.501	-19.9087
21.0135	-19.0601
21.0135	-19.0601
21.4921	-18.1843
21.9859	-17.3206
21.0135	-19.0601
21.9916	-19.0659
23	-19.0526
21.9859	-17.3206
22.4941	-16.4675
22.9876	-15.579
21.9859	-17.3206
22.9932	-17.3078
24.0094	-17.3187
22.9876	-15.579
23.4905	-14.7273
24.0094	-13.8473
25.0084	-12.1121
25.5079	-11.2465
25.9864	-10.3892
25.0084	-12.1121
25.4851	-12.9823
26	-13.8564
25.9864	-10.3892
26.4984	-9.53803
27.0028	-8.67389
25.9864	-10.3892
26.5058	-11.254
26.9857	-12.1203
25.9864	-10.3892
26.9972	-10.4004
28.0019	-10.3855
27.0028	-8.67389
27.49	-7.80238
27.9879	-6.91441
24.0094	-17.3187
24.4984	-16.4415
25.0101	-15.5813
25.0101	-15.5813
25.4985	-14.7348
26	-13.8564
26	-13.8564
26.5039	-12.978
26.9857	-12.1203
26.9857	-12.1203
27.509	-11.2509
28.0019	-10.3855
-25.5098	13.0035
-24.9967	12.125
-24.4988	11.2584
-22.9853	17.3328
-21.9904	17.3129
-20.9953	17.3189
-22.4882	18.1812
-21.9904	17.3129
-21.5096	16.4429
-21.9878	19.0501
-21.0089	19.0574
-20.0108	19.0458
-28.4972	6.05646
-27.9909	6.91356
-27.4962	7.80137
-27.4962	7.80137
-27.0071	8.65574
-26.5107	9.53131
-26.5107	9.53131
-25.9979	10.4072
-25.4858	11.2567
-25.998	8.67451
-25.0067	8.64994
-23.9931	8.65869
-25.0094	10.3863
-24.0062	10.3936
-22.9983	10.4058
-24.4988	11.2584
-24.0062	10.3936
-23.4935	9.54018
-23.9954	12.1157
-22.9883	12.1201
-22.0094	12.1291
-21.5096	16.4429
-20.9931	15.5898
-20.5029	14.7353
-20.9953	17.3189
-20.0066	17.3348
-18.9861	17.3163
-20.0108	19.0458
-19.0089	19.0569
-17.9943	19.0384
-19.4936	19.9242
-19.0089	19.0569
-18.5051	18.1912
-18.9995	20.7788
-17.9988	20.7984
-16.9992	20.782
-18.5099	21.6407
-17.9988	20.7984
-17.4856	19.9116
-27.9944	1.7425
-26.9879	1.73954
-25.9894	1.73322
-26.9859	3.45963
-25.9959	3.46815
-24.9912	3.47618
-26.4935	6.05332
-26.0013	6.92992
-25.4863	7.78053
-25.5108	6.05481
-25.0091	5.20711
-24.5069	4.34238
-24.4898	7.80829
-23.989	6.93044
-23.4918	6.06149
-23.4942	11.2578
-22.9883	12.1201
-22.4887	12.9893
-22.4887	12.9893
-22.0134	13.8694
-21.5128	14.736
-22.0094	12.1291
-21.0091	12.129
-19.9967	12.1377
-21.508	12.9861
-21.0091	12.129
-20.5083	11.2622
-20.9929	13.8544
-20.0149	13.8671
-18.9882	13.8581
-20.5029	14.7353
-20.0149	13.8671
-19.4942	13.0002
-19.5084	16.4428
-19.001	15.5766
-18.4946	14.7267
-18.9861	17.3163
-18.0103	17.3326
-16.9857	17.3282
-18.5051	18.1912
-18.0103	17.3326
-17.5085	16.4409
-17.9943	19.0384
-17.0113	19.0456
-16.0087	19.061
-17.4856	19.9116
-17.0113	19.0456
-16.5046	18.182
-16.9992	20.782
-15.9982	20.7757
-14.9923	20.7853
-15.9855	22.517
-14.9909	22.5168
-14.0041	22.5099
-15.4903	23.3707
-14.9909	22.5168
-14.4868	21.6596
-28.0113	-1.7299
-27.0027	-1.73012
-25.9941	-1.72764
-25.9894	1.73322
-24.9906	1.72356
-23.9964	1.72165
-25.5118	2.61195
-24.9906	1.72356
-24.5075	0.87479
-24.9912	3.47618
-24.0001	3.47188
-22.9887	3.47583
-24.5069	4.34238
-24.0001	3.47188
-23.4897	2.60827
-22.5121	9.51774
-21.9919	10.39
-21.5108	11.2728
-21.5108	11.2728
-21.0091	12.129
-20.5008	12.9808
-21.4868	9.52399
-20.9918	8.65097
-20.5005	7.80124
-20.5008	12.9808
-20.0149	13.8671
-19.5078	14.7332
-20.5083	11.2622
-20.002	10.4065
-19.5121	9.5248
-19.9967	12.1377
-18.9863	12.1336
-17.9966	12.1122
-19.5078	14.7332
-19.001	15.5766
-18.5134	16.45
-19.4942	13.0002
-18.9863	12.1336
-18.4916	11.2571
-18.9882	13.8581
-17.9953	13.8598
-17.0089	13.862
-18.4946	14.7267
-17.9953	13.8598
-17.5141	12.9859
-16.9857	17.3282
-16.0037	17.321
-14.9856	17.329
-16.5046	18.182
-16.0037	17.321
-15.4977	16.4603
-16.0087	19.061
-14.9928	19.0564
-14.0105	19.0515
-15.5096	19.9103
-14.9928	19.0564
-14.509	18.1968
-14.4868	21.6596
-13.9961	20.7971
-13.4851	19.9215
-13.4924	23.3948
-13.002	22.5043
-12.4966	21.6475
-27.5124	-2.60083
-27.0027	-1.73012
-26.5014	-0.868397
-26.9883	-3.46884
-25.9873	-3.47654
-24.9974	-3.46966
-26.5014	-0.868397
-26.0129	0.0140883
-25.4955	0.869037
-26.497	-2.59358
-25.9873	-3.47654
-25.505	-4.32293
-25.9941	-1.72764
-25.0138	-1.73973
-24.0113	-1.7441
-23.9964	1.72165
-23.0091	1.72083
-22.0057	1.72125
-23.4897	2.60827
-23.0091	1.72083
-22.4941	0.861135
-22.9887	3.47583
-22.0036	3.4785
-21.0149	3.46958
-20.5005	7.80124
-19.9988	6.92959
-19.5149	6.05712
-19.5121	9.5248
-18.9874	8.66338
-18.5131	7.79655
-18.4916	11.2571
-17.9937	10.3964
-17.5132	9.51535
-17.9966	12.1122
-17.0142	12.1227
-15.9982	12.1278
-17.0089	13.862
-16.0072	13.8646
-14.9962	13.8643
-16.0105	15.5899
-14.9852	15.5963
-14.0042	15.5851
-15.4977	16.4603
-14.9852	15.5963
-14.4863	14.7277
-14.9856	17.329
-14.0139	17.328
-12.9969	17.3063
-14.509	18.1968
-14.0139	17.328
-13.4937	16.4615
-10.0055	25.9771
-9.00928	25.9792
-7.99118	25.9837
-25.505	-4.32293
-25.0122	-5.20279
-24.4857	-6.0735
-24.4981	-0.86499
-24.0106	0.0143874
-23.4917	0.866153
-23.4917	0.866153
-23.0091	1.72083
-22.5013	2.60939
-22.5013	2.60939
-22.0036	3.4785
-21.4957	4.33733
-22.0057	1.72125
-20.9977	1.72142
-19.9972	1.72369
-19.989	5.18337
-19.0055	5.20188
-17.9871	5.18452
-19.0125	6.9271
-18.0113	6.91539
-16.9936	6.91568
-17.5132	9.51535
-17.0029	8.6699
-16.509	7.78483
-16.5111	12.9906
-16.0072	13.8646
-15.4879	14.7098
-15.5097	12.9794
-14.9876	12.1197
-14.4951	11.2623
-14.9962	13.8643
-14.0034	13.8507
-13.0146	13.8547
-14.4863	14.7277
-14.0034	13.8507
-13.4853	12.9877
-14.0042	15.5851
-13.0031	15.598
-12.0126	15.5851
-13.4899	18.173
-13.0007	19.0617
-12.4937	19.9139
-13.4937	16.4615
-13.0031	15.598
-12.5073	14.7166
-12.9969	17.3063
-11.9987	17.3323
-11.0101	17.3338
-12.4937	19.9139
-12.0018	20.7912
-11.5144	21.6368
-11.5144	21.6368
-10.9903	22.5257
-10.5145	23.388
-9.99473	22.5242
-8.99611	22.5278
-8.00959	22.5274
-7.99118	25.9837
-6.99631	25.9725
-6.00394	25.995
-27.5111	-9.53006
-27.0112	-8.64669
-26.4917	-7.80681
-27.0127	-10.3875
-26.0067	-10.3964
-25.0021	-10.3815
-26.4917	-7.80681
-26.0012	-6.91573
-25.5139	-6.06868
-25.5139	-6.06868
-25.0122	-5.20279
-24.4962	-4.32859
-24.9914	-6.92125
-23.9878	-6.94183
-22.9857	-6.93737
-24.4962	-4.32859
-24.0016	-3.45657
-23.5012	-2.59137
-23.4921	-4.3387
-23.0003	-5.18805
-22.4859	-6.06161
-19.4965	2.59143
-19.0124	1.71813
-18.5085	0.878205
-16.9936	6.91568
-16.0065	6.92776
-15	6.92028
-16.0133	8.66454
-15.0076	8.65635
-14.0097	8.67384
-15.4968	11.2442
-14.9876	12.1197
-14.5144	12.9814
-14.9894	10.3819
-13.9909	10.4061
-13.0005	10.3807
-13.4853	12.9877
-13.0008	12.1191
-12.4976	11.253
-12.5142	16.4689
-11.9987	17.3323
-11.5042	18.1962
-12.5073	14.7166
-11.9869	13.8612
-11.5003	12.985
-12.0126	15.5851
-10.9873	15.6017
-10.0119	15.5772
-11.5042	18.1962
-10.9882	19.0417
-10.4952	19.9173
-11.0101	17.3338
-9.98968	17.3225
-9.00998	17.3075
-8.51134	23.3718
-8.01168	24.2433
-7.49974	25.1014
-7.49974	25.1014
-6.99631	25.9725
-6.49478	26.8617
-6.49478	26.8617
-5.99022	27.7001
-5.50542	28.5789
-5.49479	26.8576
-4.98938	25.9791
-4.50571	25.1229
-4.48936	28.5701
-4.00377	27.7204
-3.4865	26.8524
-26.5126	-11.25
-26.0067	-10.3964
-25.4944	-9.51342
-25.4944	-9.51342
-25.0072	-8.65985
-24.4995	-7.78868
-24.4995	-7.78868
-23.9878	-6.94183
-23.5072	-6.05168
-23.5072	-6.05168
-23.0003	-5.18805
-22.5114	-4.31707
-22.5114	-4.31707
-21.9898	-3.47108
-21.4912	-2.6023
-20.9983	-3.45775
-20.0135	-3.47692
-19.0067	-3.4599
-20.0074	-1.73276
-18.9968	-1.72932
-18.0076	-1.72009
-16.4932	4.33496
-16.0107	3.4584
-15.4946	2.58386
-15	6.92028
-14.0052	6.92169
-12.9876	6.93614
-12.4871	13.003
-11.9869	13.8612
-11.505	14.7366
-12.4976	11.253
-11.987	10.388
-11.493	9.53114
-11.5003	12.985
-10.9895	12.1132
-10.5019	11.2612
-9.50341	16.4523
-9.00956	15.596
-8.50886	14.7181
-9.00998	17.3075
-7.98679	17.3264
-6.99267	17.3106
-4.50571	25.1229
-3.98569	24.237
-3.51109	23.3811
-25.5073	-14.7128
-24.9971	-15.592
-24.5137	-16.4538
-24.9931	-13.8588
-23.9941	-13.8596
-23.0005	-13.8414
-23.4923	-9.5151
-23.0095	-8.64794
-22.4912	-7.80247
-22.4912	-7.80247
-21.985	-6.93939
-21.4878	-6.06997
-22.4984	-9.53817
-21.9907	-10.382
-21.5028	-11.2585
-20.4953	-6.07171
-20.0114	-6.92091
-19.4883	-7.78206
-19.0067	-3.4599
-18.0128	-3.46475
-17.0141	-3.45055
-18.4859	-2.6035
-18.0128	-3.46475
-17.5123	-4.34451
-18.0076	-1.72009
-17.008	-1.74566
-15.9977	-1.73868
-16.991	0.0143869
-15.9979	0.00838765
-14.9926	0.0106818
-15.999	1.72108
-14.9913	1.73944
-13.9994	1.73189
-15.4946	2.58386
-14.9913	1.73944
-14.5115	0.874979
-14.4946	4.33077
-14.0077	3.46197
-13.4926	2.58925
-12.5103	9.52747
-11.987	10.388
-11.4927	11.2593
-11.4927	11.2593
-10.9895	12.1132
-10.4958	12.9817
-9.49475	13.0053
-9.00145	12.1103
-8.51203	11.2505
-8.50886	14.7181
-7.99295	13.8711
-7.50073	12.9915
-6.51155	19.9155
-5.98511	20.7862
-5.50953	21.6562
-5.0133	20.792
-4.00797	20.797
-3.0117	20.7703
-3.51109	23.3811
-2.99992	22.51
-2.49623	21.6441
-2.49719	26.8582
-2.00122	27.7088
-1.5003	28.5858
-0.513745	28.5716
0.00770369	27.7102
0.500079	26.856
-23.4994	-12.9998
-22.9857	-12.1217
-22.4961	-11.2623
-23.0005	-13.8414
-21.9969	-13.8422
-20.9899	-13.8478
-22.4961	-11.2623
-21.9907	-10.382
-21.503	-9.51755
-22.511	-12.9961
-21.9969	-13.8422
-21.4903	-14.7121
-21.503	-9.51755
-20.9956	-8.66942
-20.4948	-7.78023
-20.4948	-7.78023
-20.0114	-6.92091
-19.486	-6.04876
-19.4883	-7.78206
-18.9932	-8.66297
-18.4889	-9.53596
-18.9998	-6.92298
-18.0061	-6.92855
-17.0047	-6.94312
-16.5016	-2.59695
-15.9927	-3.46099
-15.5138	-4.34091
-15.9977	-1.73868
-15.0079	-1.72976
-14.0088	-1.73029
-14.9926	0.0106818
-13.9859	-0.0118941
-13.0144	-0.00521415
-13.9994	1.73189
-12.9957	1.74085
-11.992	1.72649
-13.491	4.3448
-12.9919	5.20367
-12.494	6.05624
-13.4926	2.58925
-12.9957	1.74085
-12.5	0.878825
-12.9917	3.45837
-11.9891	3.46757
-11.0029	3.45569
-12.494	6.05624
-11.994	6.93163
-11.5041	7.80045
-11.9935	5.20101
-11.0144	5.20625
-10.0133	5.20796
-11.5041	7.80045
-11.0145	8.66363
-10.4994	9.52976
-10.4994	9.52976
-10.0061	10.3967
-9.51009	11.2524
-8.51203	11.2505
-8.00276	10.3988
-7.49766	9.52399
-5.4951	18.1718
-5.00947	19.0454
-4.48764	19.9235
-5.49896	16.4647
-5.00713	15.586
-4.51448	14.7305
-4.48764	19.9235
-4.00797	20.797
-3.48851	21.658
-3.48851	21.658
-2.99992	22.51
-2.50975	23.3744
-3.49536	19.9134
-2.99741	19.061
-2.50573	18.2008
-3.0117	20.7703
-1.98596	20.7715
-0.996809	20.7857
-0.987012	24.2627
0.0132316	24.2391
0.990222	24.2501
-0.503268	26.8327
0.00770369	27.7102
0.509292	28.5783
0.500079	26.856
0.992417	25.9893
1.49854	25.1208
1.00661	27.7155
2.01046	27.7094
2.99094	27.7249
-21.4903	-14.7121
-21.0062	-15.6013
-20.4894	-16.4636
-18.4889	-9.53596
-18.0146	-10.3916
-17.4915	-11.2609
-17.0047	-6.94312
-16.0103	-6.92003
-15.0098	-6.93463
-16.4976	-4.33528
-15.9927	-3.46099
-15.4954	-2.6034
-15.4954	-2.6034
-15.0079	-1.72976
-14.5047	-0.878844
-15.5138	-4.34091
-15.0051	-5.1953
-14.4922	-6.06171
-14.0088	-1.73029
-12.9984	-1.74595
-12.008	-1.7444
-12.5129	2.59305
-11.9891	3.46757
-11.5047	4.33619
-11.5047	4.33619
-11.0144	5.20625
-10.5013	6.05521
-11.0029	3.45569
-10.0043	3.45435
-8.99797	3.45192
-10.5013	6.05521
-10.0036	6.92282
-9.48625	7.79083
-10.0133	5.20796
-8.98548	5.20264
-8.00308	5.21068
-9.48625	7.79083
-8.98907	8.65805
-8.51351	9.52453
-8.51351	9.52453
-8.00276	10.3988
-7.50831	11.2706
-8.50758	7.78014
-7.99353	6.9208
-7.48781	6.0764
-7.49766	9.52399
-6.9994	8.67081
-6.50727	7.80597
-7.01038	10.4003
-6.00953	10.4016
-4.99032	10.3966
-5.48889	12.9833
-5.01003	12.134
-4.51267	11.253
-4.99445	13.8578
-3.98877	13.8547
-3.01094	13.8471
-4.51448	14.7305
-3.98877	13.8547
-3.50465	12.9949
-3.50028	18.1938
-2.99741	19.061
-2.51107	19.9258
-3.00656	17.3251
-2.01275	17.3345
-1.01148	17.3129
-2.51107	19.9258
-1.98596	20.7715
-1.51165	21.6566
-1.98601	19.0448
-1.00604	19.0502
0.00114004	19.0582
-1.51165	21.6566
-0.998966	22.5035
-0.50091	23.3696
-0.996809	20.7857
-0.00182561	20.7823
1.00798	20.7831
-0.50091	23.3696
0.0132316	24.2391
0.496152	25.1054
0.496152	25.1054
0.992417	25.9893
1.50659	26.8578
2.99094	27.7249
4.00745	27.7163
5.00099	27.7067
-21.507	-16.4677
-21.0062	-15.6013
-20.5128	-14.7345
-20.5128	-14.7345
-20.0027	-13.8615
-19.4916	-12.9803
-19.4949	-14.722
-19.0148	-15.5857
-18.5041	-16.4685
-17.4936	-9.52907
-16.9852	-8.66233
-16.5073	-7.78517
-15.5043	-7.80644
-14.9929	-8.6554
-14.4977	-9.52693
-15.0098	-6.93463
-13.9946	-6.93025
-12.9866	-6.93775
-13.5027	-4.33338
-13.0117	-5.20286
-12.5057	-6.05203
-12.4943	-2.60567
-12.0055	-3.45597
-11.4996	-4.31765
-12.008	-1.7444
-11.0106	-1.71914
-9.99055	-1.73155
-10.4919	2.60659
-10.0043	3.45435
-9.5146	4.33952
-9.5146	4.33952
-8.98548	5.20264
-8.50005	6.05625
-8.00308	5.21068
-7.0018	5.21112
-6.00735	5.19921
-7.48781	6.0764
-7.0018	5.21112
-6.49826	4.33705
-6.99888	6.94187
-5.99772	6.92375
-5.01012	6.91965
-6.49853	9.52588
-6.00953	10.4016
-5.50757	11.2467
-5.9915	8.67354
-4.99855	8.67099
-3.99175	8.67004
-5.50757	11.2467
-5.01003	12.134
-4.50304	12.9848
-4.99032	10.3966
-3.99473	10.3884
-2.98577	10.3905
-4.50304	12.9848
-3.98877	13.8547
-3.49335	14.736
-2.49332	14.7372
-1.99921	13.8642
-1.51483	12.9822
-1.50752	18.1972
-1.00604	19.0502
-0.495927	19.9089
-1.01148	17.3129
0.0136028	17.3259
1.01056	17.3347
-0.495927	19.9089
-0.00182561	20.7823
0.487653	21.6565
0.00114004	19.0582
0.993257	19.0415
1.98592	19.0618
0.487653	21.6565
0.995057	22.5193
1.49835	23.3857
1.00798	20.7831
1.99263	20.7975
2.98558	20.7987
1.49835	23.3857
2.0052	24.2579
2.48511	25.1075
5.49845	28.5656
5.9957	27.7124
6.51428	26.853
-18.5041	-16.4685
-17.9908	-17.3334
-17.4887	-18.1874
-17.9982	-15.5846
-17.0146	-15.5883
-16.002	-15.5956
-15.4969	-11.2529
-15.0118	-12.1192
-14.5028	-12.9941
-14.992	-10.4065
-13.9862	-10.3797
-12.9907	-10.4064
-12.9866	-6.93775
-11.9865	-6.92843
-11.0098	-6.93912
-12.5057	-6.05203
-11.9865	-6.92843
-11.4985	-7.78043
-11.4996	-4.31765
-10.9903	-5.19234
-10.4857	-6.06101
-9.50974	0.877702
-9.01493	1.72789
-8.49095	2.58358
-9.49352	-0.851552
-8.99899	-1.71841
-8.50652	-2.59056
-8.49759	0.868086
-8.0076	-0.000550287
-7.5144	-0.86766
-6.49826	4.33705
-6.00167	3.4751
-5.50272	2.59485
-6.00735	5.19921
-5.01239	5.20405
-3.99851	5.18599
-5.01012	6.91965
-3.98792	6.91733
-2.98603	6.92766
-4.49204	9.52328
-3.99473	10.3884
-3.50363	11.2575
-3.99175	8.67004
-2.99156	8.65659
-2.01257	8.67096
-2.98577	10.3905
-2.01387	10.3846
-0.99913	10.3836
-1.51483	12.9822
-1.01071	12.1272
-0.501867	11.2437
1.01056	17.3347
1.99355	17.3301
2.99466	17.3354
1.49535	19.9168
1.99263	20.7975
2.49914	21.6593
1.98592	19.0618
2.99194	19.0593
4.01183	19.0383
3.50632	21.6623
3.99962	20.7838
4.50973	19.9243
-17.9933	-19.0381
-17.0043	-19.0552
-16.0119	-19.0496
-17.5143	-16.4451
-17.0146	-15.5883
-16.5138	-14.7141
-17.4887	-18.1874
-17.0043	-19.0552
-16.498	-19.9248
-17.0016	-17.3288
-15.992	-17.3175
-14.9925	-17.3309
-16.4994	-16.4693
-15.992	-17.3175
-15.5066	-18.1977
-16.002	-15.5956
-14.9878	-15.6011
-13.9992	-15.5974
-14.5028	-12.9941
-14	-13.8564
-13.502	-14.7121
-11.0098	-6.93912
-9.9853	-6.92621
-8.99155	-6.94222
-10.4857	-6.06101
-9.9853	-6.92621
-9.49368	-7.7844
-9.49328	-2.60673
-8.99899	-1.71841
-8.48968	-0.865909
-9.0056	-3.46905
-7.99216	-3.47726
-6.99034	-3.45985
-8.48968	-0.865909
-8.0076	-0.000550287
-7.49355	0.871565
-7.49355	0.871565
-6.99912	1.7442
-6.49913	2.59713
-6.49913	2.59713
-6.00167	3.4751
-5.51326	4.34506
-5.51326	4.34506
-5.01239	5.20405
-4.50374	6.07017
-4.50374	6.07017
-3.98792	6.91733
-3.50594	7.79193
-4.49781	4.32429
-4.01024	3.44912
-3.50085	2.60567
-3.50594	7.79193
-2.99156	8.65659
-2.50305	9.51839
-3.50675	6.07028
-3.0008	5.21038
-2.49488	4.31618
-2.98603	6.92766
-1.98785	6.92375
-0.98713	6.93398
-2.50305	9.51839
-2.01387	10.3846
-1.48537	11.2664
-2.01257	8.67096
-1.01283	8.65389
-0.00933946	8.65353
-1.48537	11.2664
-1.01071	12.1272
-0.51311	12.9981
-1.50176	9.53454
-1.01283	8.65389
-0.485998	7.79862
-0.99913	10.3836
0.00122664	10.3935
1.0128	10.3942
-0.51311	12.9981
-0.00383395	13.8686
0.490734	14.7117
2.99466	17.3354
4.00224	17.3082
5.00996	17.3282
3.49579	19.9263
3.99962	20.7838
4.4878	21.6606
4.50973	19.9243
4.99899	19.0386
5.4962	18.2003
5.49055	21.6594
5.98564	20.7927
6.5118	19.9205
6.48557	23.3882
7.00451	22.5296
7.50772	21.6436
6.9913	24.2385
7.99678	24.2466
8.98997	24.2411
7.99167	25.9846
8.98575	25.9721
10.0094	25.9867
-17.4951	-19.9225
-17.0043	-19.0552
-16.5067	-18.1956
-17.5105	-21.6528
-17.0099	-22.5067
-16.5021	-23.3957
-17.0091	-20.7732
-16.0037	-20.7838
-14.9933	-20.7867
-16.5067	-18.1956
-15.992	-17.3175
-15.4959	-16.447
-16.0119	-19.0496
-15.0114	-19.0522
-13.9977	-19.0391
-14.9925	-17.3309
-13.9951	-17.3339
-12.9923	-17.3255
-13.502	-14.7121
-13.0123	-15.5933
-12.4939	-16.4449
-12.5069	-12.9783
-11.9875	-13.8466
-11.4889	-14.7312
-9.49368	-7.7844
-8.9858	-8.6454
-8.50688	-9.54065
-8.99155	-6.94222
-7.98836	-6.92923
-6.99289	-6.93395
-8.49684	-4.31726
-7.99216	-3.47726
-7.50762	-2.59416
-8.01055	-5.1916
-7.00445	-5.20494
-5.99708	-5.2003
-7.50762	-2.59416
-7.00082	-1.73456
-6.5117	-0.878626
-6.00304	-1.72882
-5.00709	-1.7367
-4.01336	-1.73667
-5.49078	-0.876428
-5.00709	-1.7367
-4.50085	-2.58411
-4.00525	1.72916
-2.99356	1.7371
-1.98702	1.73395
-2.50841	6.06493
-1.98785	6.92375
-1.49029	7.78213
-2.49488	4.31618
-2.00727	3.4584
-1.48521	2.58992
-1.49029	7.78213
-1.01283	8.65389
-0.508927	9.54124
-1.49531	6.06042
-0.986409	5.20071
-0.50871	4.32251
-0.98713	6.93398
0.0137552	6.92101
1.00286	6.93341
-0.508927	9.54124
0.00122664	10.3935
0.513295	11.2579
-0.485998	7.79862
0.0137552	6.92101
0.493731	6.04897
-0.00933946	8.65353
1.01211	8.65522
2.00426	8.6637
0.513295	11.2579
1.00345	12.1199
1.49238	12.9755
1.51142	11.2593
1.99165	10.4046
2.50158	9.51764
3.5096	16.4597
4.00224	17.3082
4.49083	18.1957
3.48601	14.7341
3.99125	13.8443
4.5077	12.9846
4.49083	18.1957
4.99899	19.0386
5.50589	19.9331
5.50589	19.9331
5.98564	20.7927
6.50784	21.6623
5.4962	18.2003
6.0093	17.3108
6.49238	16.4614
7.50772	21.6436
8.00976	20.7907
8.50355	19.9294
8.51476	25.1162
8.98575	25.9721
9.50606	26.8569
8.50914	23.3697
8.99562	22.5104
9.50024	21.6539
8.98997	24.2411
9.991	24.2355
10.989	24.2563
9.48897	25.1251
9.991	24.2355
10.5122	23.3904
10.492	26.8487
10.9975	25.9777
11.4887	25.118
-16.4964	-21.6582
-16.0037	-20.7838
-15.4865	-19.9272
-15.4865	-19.9272
-15.0114	-19.0522
-14.4912	-18.1743
-14.4912	-18.1743
-13.9951	-17.3339
-13.4926	-16.4427
-13.9977	-19.0391
-12.9976	-19.0472
-12.0091	-19.0449
-13.4926	-16.4427
-13.0123	-15.5933
-12.5137	-14.7094
-12.9923	-17.3255
-12.0108	-17.3191
-10.9999	-17.3209
-12.5137	-14.7094
-11.9875	-13.8466
-11.5	-12.9993
-11.4889	-14.7312
-11.0098	-15.586
-10.4875	-16.4445
-9.49294	-9.51198
-8.9858	-8.6454
-8.49905	-7.78629
-9.49221	-11.2504
-9.00896	-12.1218
-8.51142	-12.9878
-8.49905	-7.78629
-7.98836	-6.92923
-7.51006	-6.07254
-8.50688	-9.54065
-7.99841	-10.3812
-7.50438	-11.2482
-7.99573	-8.65829
-6.99634	-8.64527
-6.01344	-8.6591
-6.99289	-6.93395
-6.0082	-6.92672
-5.00283	-6.93586
-5.99708	-5.2003
-4.99938	-5.18515
-4.00881	-5.20203
-4.51161	-0.880332
-4.00375	-0.00242996
-3.50306	0.862094
-4.01336	-1.73667
-3.01093	-1.72852
-2.00502	-1.72312
-3.50306	0.862094
-2.99356	1.7371
-2.50121	2.60878
-3.0065	0.00985691
-1.99147	-0.00883317
-1.01113	-0.00171693
-2.50121	2.60878
-2.00727	3.4584
-1.50745	4.32734
-1.50745	4.32734
-0.986409	5.20071
-0.505764	6.05639
-1.48521	2.58992
-1.00775	1.72403
-0.514357	0.875613
-0.505764	6.05639
0.0137552	6.92101
0.498633	7.80228
0.498633	7.80228
1.01211	8.65522
1.49882	9.52218
1.00286	6.93341
2.0056	6.93555
3.0086	6.92743
1.51364	7.77964
2.0056	6.93555
2.50356	6.0475
2.00426	8.6637
2.98891	8.65156
4.00068	8.66237
3.50484	13.0053
3.99125	13.8443
4.51165	14.7155
3.50498	11.2556
3.99755	10.3848
4.51001	9.51589
4.99707	13.8563
6.01335	13.8612
6.99618	13.8532
8.00237	19.0408
9.01239	19.0443
9.99345	19.067
8.50355	19.9294
9.01239	19.0443
9.50161	18.2007
9.00151	20.7928
10.0099	20.7849
10.9886	20.7959
10.0148	22.5135
11.0021	22.5028
11.9971	22.5268
-14.9891	-24.2343
-14.0082	-24.2464
-12.9888	-24.2561
-14.0105	-22.5219
-13.0062	-22.5288
-12.0136	-22.5051
-12.5083	-18.1787
-12.0108	-17.3191
-11.4939	-16.4483
-10.4875	-16.4445
-10	-17.3205
-9.5124	-18.1833
-9.51385	-14.7125
-9.01452	-15.5842
-8.51464	-16.4515
-7.49729	-9.5293
-6.99634	-8.64527
-6.5084	-7.8034
-7.50438	-11.2482
-6.99837	-12.1336
-6.4879	-12.984
-6.99039	-10.4019
-5.98516	-10.3842
-5.01186	-10.388
-6.5084	-7.8034
-6.0082	-6.92672
-5.50306	-6.07016
-6.51294	-9.52074
-5.98516	-10.3842
-5.50084	-11.2689
-6.01344	-8.6591
-5.00563	-8.67166
-3.98532	-8.65135
-5.50306	-6.07016
-4.99938	-5.18515
-4.50829	-4.34266
-5.48789	-7.79089
-5.00563	-8.67166
-4.5015	-9.53773
-4.50829	-4.34266
-4.00333	-3.45945
-3.50989	-2.596
-4.00881	-5.20203
-3.00641	-5.18467
-1.99269	-5.2013
-3.50989	-2.596
-3.01093	-1.72852
-2.48558	-0.865099
-2.48558	-0.865099
-1.99147	-0.00883317
-1.49807	0.871934
-2.00502	-1.72312
-1.00397	-1.72802
0.00998601	-1.7366
-1.49807	0.871934
-1.00775	1.72403
-0.511465	2.602
-1.01113	-0.00171693
-0.0141355	0.00354078
1.00188	-0.00791521
-0.511465	2.602
-0.00779706	3.45817
0.514071	4.32793
-0.514357	0.875613
-0.0141355	0.00354078
0.488933	-0.87622
0.514071	4.32793
0.999126	5.19995
1.51255	6.04842
2.50356	6.0475
3.0098	5.19304
3.50967	4.34148
3.0086	6.92743
3.98947	6.9295
5.00096	6.93021
4.49673	11.2489
5.01276	12.1378
5.50852	12.9775
5.50852	12.9775
6.01335	13.8612
6.509	14.726
6.509	14.726
6.99787	15.5897
7.51331	16.4427
6.99618	13.8532
7.99419	13.858
8.99454	13.8584
7.51331	16.4427
7.98793	17.3081
8.50898	18.1934
8.50898	18.1934
9.01239	19.0443
9.48659	19.9046
8.51024	16.4553
9	15.5885
9.49768	14.7139
9.99345	19.067
11.0013	19.0638
12.0145	19.0419
10.9886	20.7959
12.0069	20.7946
13.0013	20.7987
11.9971	22.5268
12.9917	22.5163
14.0145	22.5314
-14.5126	-25.1181
-14.0082	-24.2464
-13.51	-23.3865
-13.9935	-25.9933
-13.0085	-25.9909
-11.9966	-25.9796
-12.0136	-22.5051
-11.001	-22.5025
-10.0053	-22.5304
-9.50767	-16.462
-9.01452	-15.5842
-8.4864	-14.7357
-8.4864	-14.7357
-7.9982	-13.8487
-7.50847	-12.9968
-8.51464	-16.4515
-8.01457	-17.3298
-7.50632	-18.1871
-7.50847	-12.9968
-6.99837	-12.1336
-6.50894	-11.2546
-6.50894	-11.2546
-5.98516	-10.3842
-5.50692	-9.54062
-6.4879	-12.984
-6.00064	-13.8421
-5.4865	-14.7294
-5.50692	-9.54062
-5.00563	-8.67166
-4.50282	-7.80844
-4.50282	-7.80844
-4	-6.9282
-3.51122	-6.0521
-4.5015	-9.53773
-3.98874	-10.4028
-3.49995	-11.2498
-3.51122	-6.0521
-3.00641	-5.18467
-2.49678	-4.33317
-1.99269	-5.2013
-0.99806	-5.18675
-0.0105881	-5.1848
0.00998601	-1.7366
1.00473	-1.72006
1.99296	-1.72518
0.502027	0.874511
0.995342	1.73828
1.48788	2.59623
0.488933	-0.87622
1.00473	-1.72006
1.4951	-2.59897
1.48788	2.59623
2.00872	3.4594
2.49094	4.33314
1.99717	1.73905
3.00172	1.74555
3.99758	1.74019
3.98736	5.19534
5.0123	5.1923
5.98976	5.18688
4.51407	7.79387
5.00453	8.65365
5.50584	9.52983
5.00096	6.93021
6.0005	6.91815
6.98927	6.93591
8.50262	12.9982
8.98855	12.1309
9.50483	11.2524
8.99454	13.8584
9.98544	13.8657
11.012	13.8691
9.49768	14.7139
9.98544	13.8657
10.4998	12.9754
10.5018	18.1845
11.0013	19.0638
11.4873	19.9291
11.0029	17.3079
12.0011	17.3355
12.994	17.3139
11.4927	18.1882
12.0011	17.3355
12.4963	16.4603
12.0145	19.0419
12.9981	19.0643
14.0143	19.0569
12.5072	19.9318
12.9981	19.0643
13.5129	18.1899
13.5041	21.6435
13.9931	20.7844
14.4948	19.9087
14.0145	22.5314
15.0149	22.528
15.9865	22.5106
15.5021	25.1196
15.9886	24.2467
16.4968	23.3913
-12.5074	-25.1216
-11.9913	-24.2621
-11.5086	-23.3834
-11.9966	-25.9796
-10.998	-25.9894
-10.0032	-25.9955
-11.5086	-23.3834
-11.001	-22.5025
-10.4886	-21.6471
-10.4886	-21.6471
-9.99479	-20.7715
-9.48828	-19.9279
-10.0053	-22.5304
-8.99042	-22.5027
-7.98878	-22.5311
-9.48828	-19.9279
-9	-19.0526
-8.49297	-18.1836
-9.49579	-21.6551
-8.99042	-22.5027
-8.48774	-23.3905
-8.49297	-18.1836
-8.01457	-17.3298
-7.5116	-16.453
-7.98858	-19.0503
-6.99193	-19.0672
-6.00636	-19.0475
-7.5116	-16.453
-7.01088	-15.5782
-6.49735	-14.716
-7.50632	-18.1871
-6.99193	-19.0672
-6.50472	-19.9307
-7.01306	-17.3239
-6.0011	-17.3263
-5.0114	-17.3243
-4.51488	-11.2691
-3.98874	-10.4028
-3.48547	-9.52351
-3.49995	-11.2498
-3.00823	-12.116
-2.48783	-12.9813
-1.50331	-6.06502
-0.99806	-5.18675
-0.49844	-4.32135
-1.49533	-7.80269
-1.01459	-8.66144
-0.507404	-9.51412
-0.49844	-4.32135
-0.0148845	-3.46617
0.509491	-2.58469
-0.497904	-6.06773
0.0134122	-6.93497
0.488086	-7.78771
-0.0105881	-5.1848
0.991249	-5.19496
1.99341	-5.18209
0.992268	-3.47724
1.99708	-3.45674
2.98955	-3.4705
2.5109	-0.866057
2.98574	-1.72278
3.51404	-2.6074
3.99758	1.74019
4.99758	1.74038
5.9901	1.7452
5.48518	6.06052
6.0005	6.91815
6.48619	7.79279
5.49382	4.33252
5.99906	3.46404
6.48941	2.58823
6.48619	7.79279
6.99966	8.64615
7.48869	9.51447
6.49389	6.07588
6.99458	5.20291
7.50868	4.33153
6.98927	6.93591
7.99044	6.92208
9.00552	6.94175
8.48819	9.53574
8.99963	8.65375
9.51071	7.79681
9.504	12.9922
9.98544	13.8657
10.5069	14.7122
9.50483	11.2524
10.0096	10.3874
10.4943	9.52582
9.9854	12.1369
10.9883	12.1145
11.9928	12.1378
10.5069	14.7122
11.0022	15.5861
11.5045	16.4464
11.012	13.8691
12.0022	13.8604
13.0031	13.8569
11.5045	16.4464
12.0011	17.3355
12.4995	18.1974
12.4995	18.1974
12.9981	19.0643
13.5034	19.9085
12.4963	16.4603
13.0079	15.5934
13.5049	14.7279
12.994	17.3139
13.998	17.3219
14.9897	17.3218
13.5129	18.1899
13.998	17.3219
14.4941	16.4537
14.4948	19.9087
14.9957	19.0447
15.5052	18.1719
15.9865	22.5106
16.9979	22.5075
17.9853	22.5287
-10.0032	-25.9955
-9.01414	-25.9864
-8.00913	-25.9847
-9.51293	-25.1064
-9.01414	-25.9864
-8.51463	-26.8516
-8.99392	-24.2365
-8.01071	-24.2392
-6.99628	-24.235
-8.48544	-21.6653
-8.00911	-20.7845
-7.51207	-19.9332
-8.48774	-23.3905
-8.01071	-24.2392
-7.49718	-25.1212
-7.51248	-21.6573
-6.99152	-22.5155
-6.49822	-23.368
-6.50472	-19.9307
-6.00125	-20.7935
-5.49703	-21.6414
-4.50764	-14.708
-4.00655	-13.8416
-3.5015	-13.0037
-3.5015	-13.0037
-3.00823	-12.116
-2.491	-11.2666
-3.4992	-14.7101
-2.98762	-15.5753
-2.50803	-16.4657
-2.491	-11.2666
-2.00429	-10.4037
-1.50589	-9.52075
-2.48783	-12.9813
-1.99872	-13.8712
-1.49087	-14.7344
-1.50589	-9.52075
-1.01459	-8.66144
-0.505913	-7.78395
-0.505913	-7.78395
0.0134122	-6.93497
0.504596	-6.05988
-0.507404	-9.51412
-0.00323871	-10.3788
0.493682	-11.2671
0.504596	-6.05988
0.991249	-5.19496
1.50607	-4.32738
1.99341	-5.18209
3.01489	-5.18329
3.9868	-5.1812
2.98955	-3.4705
3.99685	-3.47656
4.98913	-3.45172
3.48937	-0.867049
4.01497	-0.00244982
4.4995	0.851937
5.51137	0.867863
5.98918	-0.0103603
6.5052	-0.877681
5.9901	1.7452
6.99559	1.74417
7.98771	1.72378
8.49578	6.05497
8.99828	5.20179
9.51026	4.33845
10.4943	9.52582
11.0134	8.64949
11.5085	7.80824
11.9928	12.1378
13.0084	12.1099
13.9962	12.1353
12.4987	14.7238
13.0079	15.5934
13.4917	16.4412
13.5049	14.7279
14.006	13.8414
14.4985	12.9801
14.9897	17.3218
15.9886	17.3187
16.9959	17.3216
16.999	20.7893
17.9942	20.7925
19.0145	20.7768
-9.49269	-26.8354
-9.01414	-25.9864
-8.49937	-25.1039
-8.49937	-25.1039
-8.01071	-24.2392
-7.50986	-23.3905
-8.00913	-25.9847
-6.98743	-25.9907
-5.98881	-25.9725
-6.99628	-24.235
-6.0055	-24.2562
-4.99777	-24.26
-5.49517	-19.9312
-5.00083	-19.0636
-4.49331	-18.1772
-2.50803	-16.4657
-2.00036	-17.3329
-1.50819	-18.1999
-1.49087	-14.7344
-1.00308	-15.5818
-0.508624	-16.4535
-0.491251	-11.2604
-0.00323871	-10.3788
0.509123	-9.53122
-0.485657	-12.9988
0.00391174	-13.8513
0.485202	-14.7129
0.493682	-11.2671
1.00069	-12.1381
1.50139	-13.0012
3.9868	-5.1812
4.98749	-5.18774
6.00789	-5.20329
5.49145	-0.874764
5.98918	-0.0103603
6.50854	0.857788
6.5052	-0.877681
7.00152	-1.73826
7.50504	-2.58518
7.98771	1.72378
8.9887	1.72172
9.99055	1.72239
8.50646	4.33324
8.99828	5.20179
9.48591	6.06209
9.48591	6.06209
9.99252	6.94029
10.5096	7.78616
11.5085	7.80824
12.007	6.9233
12.506	6.0718
12.5079	9.53637
12.9981	8.66631
13.5085	7.80266
13.0123	10.4041
13.9878	10.3849
14.9855	10.4039
13.9962	12.1353
15.0021	12.112
15.9944	12.1267
14.4985	12.9801
15.0021	12.112
15.5078	11.262
16.9959	17.3216
18.007	17.3239
18.9879	17.3173
17.493	19.9327
17.9942	20.7925
18.4886	21.6378
17.4999	18.1859
18.007	17.3239
18.5017	16.4439
-7.5096	-26.8582
-6.98743	-25.9907
-6.48613	-25.1199
-5.98881	-25.9725
-4.99947	-25.9887
-3.98917	-25.9829
-4.99777	-24.26
-4.01135	-24.2602
-3.01041	-24.2522
-4.4921	-21.6475
-3.98976	-20.7757
-3.48897	-19.912
-3.98558	-22.5315
-3.00438	-22.5205
-2.0149	-22.5023
-1.50819	-18.1999
-0.995632	-19.0478
-0.50024	-19.9195
-0.999796	-17.3194
-0.00500676	-17.3351
0.986304	-17.3186
-0.508624	-16.4535
-0.00500676	-17.3351
0.500448	-18.1908
3.98685	-8.66066
5.0054	-8.65625
6.00585	-8.64862
7.50997	-0.853193
8	0
8.49615	0.858199
7.50504	-2.58518
8.01461	-3.46422
8.50312	-4.32987
7.98725	-1.73658
9.0101	-1.74075
9.99449	-1.7405
8.49615	0.858199
8.9887	1.72172
9.48556	2.59239
9.48556	2.59239
10.0118	3.45792
10.5058	4.33705
9.99055	1.72239
11.0013	1.74578
12.0068	1.73398
12.506	6.0718
12.9991	5.18687
13.5118	4.32708
13.5116	9.51491
13.9878	10.3849
14.5136	11.2685
13.5085	7.80266
13.9969	6.93658
14.5132	6.06006
14.5136	11.2685
15.0021	12.112
15.4956	12.9844
15.4956	12.9844
16.0138	13.8617
16.4943	14.7148
15.5078	11.262
16.0055	10.404
16.4915	9.5184
16.4943	14.7148
17	15.5885
17.4894	16.4476
16.485	13.004
17.0095	12.1157
17.4932	11.2725
17.0052	13.8476
17.9991	13.8435
18.9864	13.8595
17.4907	14.7301
17.9991	13.8435
18.49	12.9834
18.9879	17.3173
20.0037	17.3298
20.9992	17.3249
19.5047	18.1737
20.0037	17.3298
20.4893	16.4684
20.001	19.0652
21.015	19.058
22.0048	19.0523
-5.48741	-26.8593
-4.99947	-25.9887
-4.4982	-25.1228
-5.01434	-27.7218
-3.99515	-27.7113
-3.01428	-27.7088
-4.4982	-25.1228
-4.01135	-24.2602
-3.50888	-23.3868
-3.98917	-25.9829
-3.00524	-25.995
-2.00822	-25.9678
-3.51436	-25.1297
-3.00524	-25.995
-2.49934	-26.8423
-1.50339	-19.9179
-0.995632	-19.0478
-0.508375	-18.1956
-1.50155	-21.6576
-0.987501	-22.5297
-0.50758	-23.392
-0.508375	-18.1956
-0.00500676	-17.3351
0.510577	-16.4594
-0.50024	-19.9195
0.00105683	-20.7769
0.501829	-21.6554
0.510577	-16.4594
0.996995	-15.5847
1.50198	-14.7098
4.50437	-9.51993
5.0054	-8.65625
5.49724	-7.80723
6.00585	-8.64862
6.98971	-8.66182
7.99977	-8.67516
8.49118	-2.60317
9.0101	-1.74075
9.49096	-0.877088
8.999	-3.47595
9.99731	-3.46157
11.0051	-3.47026
9.49096	-0.877088
9.99654	-0.0147412
10.5133	0.875458
9.99449	-1.7405
10.9982	-1.73777
11.9904	-1.73395
10.5133	0.875458
11.0013	1.74578
11.4997	2.60045
12.0068	1.73398
12.9863	1.74258
14.0027	1.74195
14.5132	6.06006
14.9903	5.20044
15.5123	4.32112
14.9962	6.93371
15.9995	6.92124
16.9867	6.9401
15.5103	9.51317
16.0055	10.404
16.5045	11.2453
18.49	12.9834
19.0062	12.1278
19.5075	11.2495
20.4893	16.4684
21.0005	15.5937
21.4917	14.7253
21.4954	18.1956
21.9873	17.3129
22.5111	16.4609
-4.00356	-29.4454
-2.99918	-29.4593
-2.0094	-29.433
-3.01428	-27.7088
-2.00415	-27.7136
-1.0006	-27.7128
-2.50655	-25.1109
-1.99105	-24.2407
-1.48588	-23.3956
-2.49934	-26.8423
-2.00415	-27.7136
-1.49398	-28.5769
-2.00822	-25.9678
-0.991348	-25.9939
-0.00217809	-25.9818
-1.48588	-23.3956
-0.987501	-22.5297
-0.509089	-21.6449
-0.509089	-21.6449
0.00105683	-20.7769
0.500098	-19.9301
0.500098	-19.9301
1.00073	-19.0521
1.48791	-18.1799
1.48791	-18.1799
1.98592	-17.33
2.49019	-16.4608
4.99677	-13.8588
5.98938	-13.859
7.01396	-13.8614
5.50504	-11.2548
6.00774	-10.3915
6.49901	-9.53742
6.49901	-9.53742
6.98971	-8.66182
7.50901	-7.78394
6.49901	-11.2624
6.98663	-12.1365
7.50683	-12.9985
7.00945	-10.3864
7.99379	-10.4008
8.9953	-10.3818
7.50901	-7.78394
8.01081	-6.91478
8.50204	-6.07112
7.99977	-8.67516
8.98817	-8.66497
10.0126	-8.65044
8.50204	-6.07112
8.98911	-5.18347
9.51239	-4.32831
8.51148	-7.80159
8.98817	-8.66497
9.49574	-9.52469
9.51239	-4.32831
9.99731	-3.46157
10.4905	-2.60947
10.49	-4.31963
10.9941	-5.20749
11.5013	-6.06487
11.0051	-3.47026
12.0017	-3.45195
12.998	-3.46867
11.5023	-2.58562
12.0017	-3.45195
12.499	-4.32288
11.9904	-1.73395
13.0028	-1.73802
14.0017	-1.71837
12.9925	-0.014946
13.9948	0.00879469
14.9959	-0.000333175
13.5075	2.59925
13.9997	3.45522
14.5092	4.33422
13.4864	0.85164
13.9948	0.00879469
14.5054	-0.874466
15.5123	4.32112
15.986	3.46463
16.4888	2.59208
15.9919	5.18361
16.985	5.20754
18.0073	5.19725
16.9867	6.9401
18.006	6.93915
18.9952	6.91749
18.9861	10.3986
20.0142	10.4055
21.0006	10.4005
21.5066	16.4542
21.9873	17.3129
22.4866	18.1871
-2.0094	-29.433
-0.999206	-29.4572
-0.00277457	-29.4372
-0.502296	-26.8487
-0.00874998	-27.7049
0.514374	-28.5754
-0.00217809	-25.9818
0.986628	-25.9911
1.99688	-25.9803
4.00997	-19.0556
4.99563	-19.0612
5.99466	-19.0454
8.9953	-10.3818
10.0005	-10.381
10.9913	-10.4028
9.512	-7.80145
9.99953	-6.92854
10.5056	-6.05788
9.49574	-9.52469
10.0005	-10.381
10.4862	-11.2529
10.0126	-8.65044
10.9881	-8.65875
12.0076	-8.64934
10.5056	-6.05788
10.9941	-5.20749
11.5025	-4.32365
12.998	-3.46867
14.0074	-3.46263
14.9984	-3.46659
13.498	-2.60597
14.0074	-3.46263
14.4884	-4.33681
14.0017	-1.71837
15.0086	-1.74113
15.988	-1.73093
15.4917	0.853442
16.0039	0.00600191
16.4966	-0.859079
16.4888	2.59208
16.9943	1.73034
17.4976	0.857187
18.0073	5.19725
19.0039	5.19056
19.9999	5.19422
18.498	6.06652
19.0039	5.19056
19.5134	4.33744
21.0006	10.4005
22.0121	10.3888
23.003	10.3811
21.4974	12.9832
22.01	13.8571
22.4957	14.7167
-0.503445	-28.5701
-0.00874998	-27.7049
0.498889	-26.8324
0.498889	-26.8324
0.986628	-25.9911
1.50402	-25.126
3.48578	-23.3818
4.00009	-24.2376
4.5099	-25.1075
5.01003	-20.7881
6.01367	-20.787
7.01334	-20.7711
5.50238	-18.1906
6.00432	-17.3095
6.50691	-16.4535
5.99466	-19.0454
7.00266	-19.0589
8.00498	-19.0536
6.50691	-16.4535
7.01244	-15.5773
7.50236	-14.7312
6.49437	-18.1912
7.00266	-19.0589
7.50671	-19.9056
9.50796	-11.2652
10.0005	-10.381
10.5097	-9.52768
9.488	-12.99
10.0111	-13.8633
10.5125	-14.732
10.9913	-10.4028
12.0028	-10.3861
13.0108	-10.3792
15.988	-1.73093
17.0073	-1.72474
17.9928	-1.72011
18.0069	1.71934
19.0068	1.73147
19.987	1.72392
19.5134	4.33744
20.0101	3.4652
20.5148	2.59809
22.49	11.245
23.0035	12.1215
23.4916	12.9774
23.003	10.3811
23.9967	10.3944
25.009	10.3977
23.4916	12.9774
23.9971	13.8445
24.4936	14.7186
23.5094	11.2551
23.9967	10.3944
24.4872	9.53431
25.4914	14.7153
26.006	13.8667
26.5034	12.9785
1.50322	-28.5678
1.98617	-27.7187
2.49172	-26.8602
2.49172	-26.8602
3.00528	-25.9875
3.5099	-25.1092
3.5099	-25.1092
4.00009	-24.2376
4.48847	-23.3919
4.48847	-23.3919
5.01262	-22.5163
5.51409	-21.6451
4.5099	-25.1075
5	-25.9868
5.50939	-26.8389
5.01212	-24.2344
6.01117	-24.2485
6.9902	-24.2445
5.98992	-22.5143
7.01035	-22.5233
7.98901	-22.5236
7.01334	-20.7711
8.0138	-20.7726
8.98699	-20.7786
7.50671	-19.9056
8.0138	-20.7726
8.49091	-21.6398
8.50935	-18.1788
9.00447	-19.0579
9.502	-19.9286
10.0063	-15.5908
10.9884	-15.5923
12.0115	-15.595
10.4856	-12.9772
10.9972	-12.1224
11.503	-11.2666
10.5125	-14.732
10.9884	-15.5923
11.5116	-16.445
11.9929	-12.1113
12.9915	-12.1305
14.0063	-12.1214
13.0108	-10.3792
13.9953	-10.3803
14.9946	-10.4044
14.5037	-6.06709
14.9872	-5.18345
15.4883	-4.33659
15.4883	-4.33659
15.9971	-3.46447
16.4979	-2.59153
16.4979	-2.59153
17.0073	-1.72474
17.4991	-0.855143
16.5093	-4.33065
16.9911	-5.19332
17.5113	-6.05925
17.4991	-0.855143
18.0041	-0.0124168
18.5118	0.8714
17.9928	-1.72011
19.0076	-1.72461
19.9912	-1.72742
18.5118	0.8714
19.0068	1.73147
19.5136	2.5868
19.5068	0.857739
20.0005	0.00413452
20.49	-0.87076
19.987	1.72392
20.9953	1.73322
22.0066	1.72359
20.5148	2.59809
20.9953	1.73322
21.4915	0.879319
22.4903	7.79632
22.9882	8.67436
23.4938	9.52988
24.4872	9.53431
24.9937	8.65973
25.4872	7.7862
25.4894	11.2592
25.9891	10.4045
26.491	9.53599
6.00384	-25.9726
7.00174	-25.987
8.00005	-25.9757
7.51152	-23.3934
7.98748	-24.2348
8.51238	-25.1049
8.5054	-19.9299
9.00447	-19.0579
9.50978	-18.1984
8.49091	-21.6398
9.01087	-22.504
9.51227	-23.3826
9.502	-19.9286
10.0103	-20.7935
10.5077	-21.6623
12.0115	-15.595
13.0048	-15.5816
14.0043	-15.5779
14.0063	-12.1214
15.0053	-12.1165
15.9958	-12.1317
14.9946	-10.4044
16.0143	-10.395
17.0045	-10.3941
16.5082	-7.80014
16.9896	-8.64682
17.5084	-9.52046
18.4866	-4.33622
18.9928	-5.19547
19.5003	-6.05812
20.49	-0.87076
21.0108	-1.73838
21.4877	-2.59323
21.4915	0.879319
21.9855	-0.00437469
22.4994	-0.862118
24.996	6.92142
25.9928	6.91415
27.01	6.91844
25.4872	7.7862
25.9928	6.91415
26.4873	6.06755
5.50875	-28.5845
6.01273	-27.7254
6.50138	-26.8586
8.00005	-25.9757
9.01457	-25.9862
9.98961	-25.9926
8.49971	-23.3795
9.01087	-22.504
9.51307	-21.6433
9.51307	-21.6433
10.0103	-20.7935
10.5116	-19.9076
10.5116	-19.9076
11.0113	-19.0476
11.4964	-18.1946
11.4964	-18.1946
12.0136	-17.3103
12.5009	-16.4548
11.9875	-19.0647
12.9862	-19.04
13.9977	-19.0636
12.5009	-16.4548
13.0048	-15.5816
13.4927	-14.7267
13.014	-17.3094
14.0068	-17.316
15.0072	-17.3242
13.4927	-14.7267
14.0114	-13.8419
14.4892	-12.9949
14.0043	-15.5779
15.0104	-15.5823
16.0099	-15.5771
14.4892	-12.9949
15.0053	-12.1165
15.4991	-11.2444
14.4873	-14.7329
15.0104	-15.5823
15.4991	-16.4419
14.9894	-13.8508
16.0043	-13.8464
16.9856	-13.867
15.9958	-12.1317
17.0015	-12.132
18.0056	-12.1392
17.0045	-10.3941
17.9882	-10.4063
18.9987	-10.3992
17.5022	-7.78188
17.9926	-6.94089
18.5036	-6.07506
17.5084	-9.52046
17.9882	-10.4063
18.4942	-11.2702
20.5004	-2.606
21.0108	-1.73838
21.5139	-0.871032
21.5139	-0.871032
21.9855	-0.00437469
22.4917	0.880532
22.4994	-0.862118
23.007	-1.73394
23.4944	-2.59391
23.5003	0.880767
24.0028	-0.00971468
24.5018	-0.879287
24.5105	2.59587
25.0018	1.73878
25.4876	0.876383
25.4888	6.071
25.9928	6.91415
26.5094	7.78985
26.5094	7.78985
27.0062	8.67167
27.5005	9.5218
9.98961	-25.9926
10.9872	-25.9702
11.9949	-25.9873
11.0093	-24.246
12.0049	-24.2561
13.0048	-24.2571
12.5113	-19.9207
12.9862	-19.04
13.493	-18.1718
13.0059	-20.7723
14.0082	-20.7932
14.9944	-20.7952
13.493	-18.1718
14.0068	-17.316
14.502	-16.446
13.9977	-19.0636
14.9951	-19.0422
15.9887	-19.0557
14.502	-16.446
15.0104	-15.5823
15.4999	-14.7363
14.4891	-18.1878
14.9951	-19.0422
15.4918	-19.9212
15.0072	-17.3242
16.013	-17.3128
16.9969	-17.3336
15.4999	-14.7363
16.0043	-13.8464
16.5022	-12.9994
15.4991	-16.4419
16.013	-17.3128
16.4999	-18.1911
18.9987	-10.3992
19.9978	-10.3864
21.0091	-10.3948
20.0109	-8.65215
20.989	-8.66944
21.9941	-8.64642
20.9977	-6.92473
21.9933	-6.92967
22.9875	-6.9262
22.5074	-2.60083
23.007	-1.73394
23.5009	-0.868573
23.5009	-0.868573
24.0028	-0.00971468
24.4895	0.874729
23.9997	-1.72499
25.0068	-1.73484
26.012	-1.72581
24.4895	0.874729
25.0018	1.73878
25.4946	2.59762
25.4876	0.876383
25.9933	0.00815903
26.5085	-0.864472
14.5125	-19.9054
14.9951	-19.0422
15.4895	-18.1937
15.4895	-18.1937
16.013	-17.3128
16.4965	-16.4606
15.9887	-19.0557
17.0101	-19.0443
17.9909	-19.0578
16.4965	-16.4606
17.011	-15.588
17.4938	-14.7084
16.4999	-18.1911
17.0101	-19.0443
17.5009	-19.9242
18.5012	-14.7249
18.9948	-15.594
19.4888	-16.4681
20.4927	-9.52333
20.989	-8.66944
21.4973	-7.80733
21.0091	-10.3948
22.0088	-10.3863
23.0008	-10.3992
22.5139	-7.79983
22.9925	-8.661
23.5012	-9.52554
23.4961	-6.07525
24.0046	-6.91702
24.512	-7.78886
24.4912	-2.59591
25.0068	-1.73484
25.4947	-0.879473
13.5023	-25.1241
13.9997	-24.2377
14.4881	-23.3965
16.4913	-19.9151
17.0101	-19.0443
17.5142	-18.187
17.5142	-18.187
17.9996	-17.3331
18.4871	-16.4447
17.9909	-19.0578
19.0125	-19.0525
20.0042	-19.0623
18.5076	-18.1862
19.0125	-19.0525
19.4918	-19.9095
20.5118	-14.712
21.008	-15.5801
21.5109	-16.4441
23.0008	-10.3992
24.0027	-10.3837
25.0067	-10.3953
24.512	-7.78886
25.0056	-8.6682
25.5114	-9.52239
27.4936	-0.872281
28	0.00194439
28.511	0.852361
15.5051	-25.1195
15.9878	-24.2424
16.5066	-23.3814
16.5066	-23.3814
16.9923	-22.5047
17.5042	-21.6632
17.5042	-21.6632
17.9983	-20.7925
18.5021	-19.9302
20.0042	-19.0623
21.0135	-19.0601
21.9916	-19.0659
21.0127	-17.3144
21.9859	-17.3206
22.9932	-17.3078
22.4909	-12.9755
22.9983	-12.1106
23.513	-11.27
23.513	-11.27
24.0027	-10.3837
24.5049	-9.53934
24.5049	-9.53934
25.0056	-8.6682
25.5057	-7.78057
25.0067	-10.3953
25.9864	-10.3892
26.9972	-10.4004
25.5114	-9.52239
25.9864	-10.3892
26.5058	-11.254
20.501	-19.9087
21.0135	-19.0601
21.4921	-18.1843
21.4921	-18.1843
21.9859	-17.3206
22.4941	-16.4675
22.4941	-16.4675
22.9876	-15.579
23.4905	-14.7273
25.5079	-11.2465
25.9864	-10.3892
26.4984	-9.53803
26.4984	-9.53803
27.0028	-8.67389
27.49	-7.80238
24.4984	-16.4415
25.0101	-15.5813
25.4985	-14.7348
25.4985	-14.7348
26	-13.8564
26.5039	-12.978
26.5039	-12.978
26.9857	-12.1203
27.509	-11.2509
